time,pressure
0.0,220.451917
0.041389,208.392647
0.316111,194.784834
0.676111,188.02932
1.506944,183.954719
2.241389,181.48673
2.966111,181.48673
3.009444,179.502661
3.805278,177.837978
4.231944,177.063708
4.599167,176.473326
5.023056,175.795839
5.325,175.795839
5.749444,174.779608
6.163611,174.256975
6.506389,173.840805
6.931389,173.356885
7.298889,172.979428
7.681667,172.592293
8.092778,172.195479
8.325833,171.982554
8.7,171.643811
9.135,171.276032
9.921667,170.608223
10.243889,170.356585
10.560556,170.104947
10.958333,169.814596
11.308611,169.562957
11.668889,169.311319
12.041944,169.040325
12.369444,168.846757
12.7,168.653189
13.124167,168.401551
13.475278,168.207983
13.889167,167.966024
14.265,167.743421
14.565833,167.549853
15.221667,167.094969
15.659444,166.794939
15.937778,166.794939
16.733889,166.146487
17.846111,165.565784
18.22,165.401251
18.595833,165.22704
19.012778,165.033472
19.0825,165.014115
19.731944,165.014115
19.780556,164.723764
20.132778,164.578588
20.864167,164.278558
21.224167,164.143061
21.529722,164.143061
21.578056,164.017242
22.011667,163.852709
22.704167,163.581714
23.080556,163.465574
23.445,163.330076
23.769167,163.233292
24.203056,163.107473
24.538333,162.991333
24.959722,162.846157
25.314167,162.720338
26.070833,162.507413
26.278889,162.429986
27.081667,162.16867
27.761667,162.004137
28.185556,161.887996
28.919722,161.675072
29.609167,161.491183
30.067778,161.365363
30.406667,161.278258
31.105556,161.104047
31.453333,161.016942
31.879444,160.891123
32.237778,160.823374
32.571111,160.745947
32.945278,160.745947
33.003056,160.639484
33.385556,160.542701
34.923611,160.174922
35.291389,160.107173
35.639722,160.029746
36.411667,159.865213
37.0475,159.720038
37.388333,159.671646
38.535,159.429686
38.783889,159.390972
39.224167,159.303867
39.542222,159.22644
39.974722,159.129656
40.296944,159.042551
40.585833,159.042551
40.626667,158.974802
41.08,158.86834
41.745556,158.752199
42.201111,158.655415
42.573611,158.597345
42.967778,158.510239
43.310278,158.442491
43.588056,158.38442
44.016389,158.306993
44.638889,158.306993
44.69,158.190852
45.081667,158.152139
45.457778,158.08439
46.2925,157.948893
46.693333,157.881144
47.109722,157.813395
47.480278,157.765003
47.951111,157.697255
48.310833,157.629506
48.649167,157.561757
48.995556,157.494009
49.327778,157.42626
49.698611,157.348833
50.389722,157.223014
51.077778,157.106873
51.75,157.019768
52.214167,156.952019
52.597222,156.893949
52.943333,156.893949
52.994167,156.845557
53.35,156.797165
53.712778,156.748773
54.100556,156.690702
54.449722,156.642311
54.849444,156.58424
55.199167,156.535848
55.424444,156.506813
55.852222,156.439064
56.2075,156.390672
56.919167,156.313245
57.255833,156.264853
57.585,156.216461
57.993333,156.148713
58.688056,156.042251
59.099722,155.974502
59.453333,155.92611
59.880556,155.839004
60.516111,155.771256
60.891389,155.713185
62.304167,155.519618
62.654167,155.461547
62.995,155.422834
63.357778,155.374442
63.729444,155.335728
64.121111,155.297015
64.475278,155.238944
64.864722,155.180874
65.227778,155.151839
65.995833,155.045377
66.362222,154.996985
66.737222,154.938914
67.089722,154.938914
67.133889,154.900201
67.489722,154.861487
67.916944,154.832452
68.263056,154.793739
68.623056,154.755025
69.443056,154.677598
69.853333,154.648563
70.257222,154.600171
71.010556,154.532422
71.348333,154.503387
72.143889,154.42596
72.467222,154.396925
73.621111,154.271106
74.053056,154.213035
74.365278,154.193679
75.170556,154.087216
75.5025,154.048503
75.945556,154.000111
76.308333,153.971076
76.657222,153.922684
77.076944,153.88397
77.409444,153.854935
77.675,153.854935
77.728056,153.8259
78.903333,153.709759
79.209444,153.671046
79.5275,153.651689
79.94,153.603297
80.309167,153.564583
80.637778,153.545227
81.385556,153.477478
81.728056,153.438764
82.154167,153.390372
82.528611,153.351659
82.938056,153.322624
83.288611,153.28391
83.626389,153.245197
83.997778,153.22584
84.377778,153.187126
84.725,153.158091
85.094722,153.119378
85.455,153.090342
85.778889,153.061307
86.155278,153.022594
86.481944,153.003237
86.926667,152.954845
87.256944,152.92581
87.679444,152.877418
88.073333,152.829026
88.446111,152.809669
88.78,152.770956
89.190833,152.732242
89.520556,152.68385
89.941389,152.645137
90.266667,152.596745
90.980833,152.528996
91.318056,152.509639
91.718333,152.470926
92.412222,152.412855
92.749722,152.374142
93.172222,152.335428
93.503611,152.306393
93.916389,152.287036
94.266389,152.248323
94.601667,152.228966
95.005833,152.199931
95.360278,152.170896
95.638056,152.151539
96.045,152.112825
96.318056,152.093469
96.706667,152.064433
97.081944,152.035398
97.421667,152.006363
97.754722,151.977328
98.371111,151.928936
98.371389,151.928936
98.963333,151.880544
99.335278,151.84183
99.640833,151.822474
100.028056,151.78376
100.396389,151.745047
100.713889,151.716011
101.461111,151.638584
101.842222,151.609549
102.209444,151.580514
102.480278,151.580514
102.531667,151.570836
102.921389,151.522444
103.630556,151.474052
104.015833,151.454695
104.339444,151.42566
104.725278,151.406303
105.136389,151.36759
105.508611,151.338554
106.232222,151.299841
106.551944,151.270806
107.28,151.212735
107.578611,151.203057
108.009444,151.164343
108.342778,151.135308
108.685,151.12563
109.022222,151.096595
109.376667,151.06756
109.726667,151.048203
110.1075,151.028846
110.416667,150.999811
111.027778,150.999811
111.08,150.970776
111.721111,150.912705
112.091944,150.893349
112.455,150.854635
112.869722,150.835278
113.234722,150.815921
113.597222,150.786886
113.965556,150.738494
114.322222,150.719138
114.686944,150.690102
115.036944,150.670746
115.327222,150.670746
115.368333,150.661067
115.713333,150.64171
116.122222,150.612675
116.458056,150.573962
116.881389,150.564283
117.248611,150.544927
117.601944,150.515891
118.010833,150.496535
118.065833,150.496535
118.360833,150.477178
118.715278,150.448143
119.131111,150.409429
119.456667,150.380394
119.783889,150.361037
120.187778,150.34168
120.527778,150.322324
120.962222,150.302967
121.696389,150.254575
122.112778,150.235218
122.408889,150.206183
123.240833,150.167469
123.5525,150.138434
123.954444,150.119078
124.3175,150.099721
124.645278,150.080364
125.281111,150.080364
125.321389,150.051329
125.677778,150.04165
126.051667,150.022294
126.643889,150.002937
127.048333,149.973902
127.411944,149.964223
127.763333,149.954545
128.180556,149.92551
128.497778,149.915831
128.896111,149.896475
129.279722,149.867439
129.585278,149.867439
129.624167,149.838404
130.031944,149.828726
130.328056,149.809369
130.689167,149.780334
131.363056,149.751299
131.713889,149.722264
132.141111,149.702907
132.505556,149.68355
132.922222,149.664193
133.596667,149.664193
133.633611,149.635158
134.029722,149.62548
134.382222,149.606123
134.716111,149.586766
135.394444,149.548053
135.747778,149.538374
136.126389,149.519018
136.898889,149.489982
137.239722,149.489982
137.296944,149.470626
137.631667,149.451269
138.056111,149.422234
138.3975,149.412555
139.105833,149.38352
139.423611,149.364163
139.686389,149.344807
140.000833,149.344807
140.703889,149.306093
141.046389,149.296415
141.3775,149.286736
141.731111,149.267379
142.146944,149.238344
142.49,149.228666
142.886944,149.199631
143.195278,149.189952
144.283611,149.14156
144.628889,149.122204
145.765278,149.073812
146.168056,149.054455
146.445,149.044777
147.555556,148.986706
148.331389,148.947993
148.611111,148.947993
148.971111,148.928636
149.268333,148.928636
149.306667,148.928636
149.6325,148.928636
149.677778,148.928636
150.086944,148.899601
150.761111,148.84153
151.655278,148.802817
152.051389,148.773782
152.858056,148.744747
153.581111,148.715711
153.9625,148.696355
154.336111,148.676998
154.680278,148.676998
154.724444,148.657641
155.125,148.628606
155.445556,148.609249
155.762778,148.599571
156.167778,148.580214
156.904722,148.570536
157.2575,148.5415
157.556111,148.5415
157.611667,148.531822
157.981944,148.522144
159.138056,148.493109
159.4675,148.48343
160.200556,148.48343
160.249167,148.464073
160.584722,148.464073
161.0025,148.444717
161.360278,148.42536
161.718333,148.406003
162.113056,148.386646
163.239167,148.357611
163.568056,148.338254
163.970556,148.338254
164.308056,148.318898
164.671389,148.309219
165.073611,148.289862
165.366944,148.289862
165.416111,148.270506
165.651111,148.270506
166.390556,148.260827
166.737778,148.24147
167.144722,148.24147
167.517778,148.222114
167.931389,148.222114
168.634722,148.1834
169.323611,148.164043
169.661111,148.154365
170.066944,148.135008
170.501944,148.115651
171.1225,148.115651
171.537222,148.057581
172.209722,148.038224
172.463333,148.018868
173.233611,147.980154
173.581944,147.960797
174.378611,147.94144
174.747778,147.931762
175.161111,147.931762
175.4725,147.931762
175.931111,147.902727
176.294722,147.864013
176.615833,147.844657
177.008333,147.815621
177.338056,147.8253
177.677778,147.815621
178.093056,147.815621
178.784444,147.805943
179.206944,147.796265
179.565,147.796265
179.967222,147.776908
180.313611,147.786586
180.4775,147.786586
181.050833,147.786586
181.100556,147.796265
181.374722,147.776908
181.706667,147.738194
182.071111,147.718838
182.423056,147.709159
182.764444,147.709159
183.506944,147.689802
183.949167,147.670446
184.244167,147.670446
184.300833,147.670446
184.64,147.660767
185.381389,147.622054
185.681667,147.622054
186.518611,147.58334
186.930278,147.58334
187.305,147.573662
187.626111,147.573662
187.925,147.563983
188.538333,147.563983
188.593056,147.554305
189.025833,147.534948
189.700278,147.515591
190.140278,147.515591
190.651944,147.515591
191.063056,147.486556
191.412778,147.486556
191.7775,147.476878
192.209444,147.467199
192.585,147.457521
193.308611,147.428486
193.696389,147.428486
194.141389,147.428486
195.029444,147.428486
195.074722,147.399451
195.413056,147.399451
195.723056,147.389772
196.385556,147.360737
196.7375,147.360737
197.148056,147.360737
197.488889,147.34138
197.954444,147.322024
198.289722,147.312345
198.611944,147.292989
199.062778,147.292989
199.395833,147.28331
199.766944,147.273632
200.922222,147.244597
201.228889,147.244597
201.273611,147.244597
201.616389,147.234918
202.035833,147.215561
202.394722,147.215561
202.718611,147.205883
203.119444,147.196205
203.479167,147.186526
204.158056,147.167169
204.500278,147.157491
204.911667,147.157491
205.254444,147.128456
205.595,147.138134
205.964444,147.118778
206.306944,147.109099
206.656667,147.099421
207.026944,147.099421
207.356667,147.099421
207.640556,147.099421
207.686389,147.089742
208.469167,147.070386
209.214444,147.060707
209.5525,147.04135
209.988056,147.021994
210.358333,147.012315
210.758611,147.002637
211.174167,147.002637
211.653889,147.002637
211.732778,147.002637
211.934167,146.992959
212.303056,146.992959
212.658056,146.954245
213.082778,146.944567
213.420278,146.915531
218.010833,146.750999
218.376944,146.74132
218.563889,146.74132
218.564167,146.74132
219.457778,146.702607
219.908333,146.692928
220.211944,146.68325
220.591944,146.663893
221.001389,146.654215
221.419167,146.634858
221.763889,146.62518
222.150556,146.615501
222.490278,146.605823
222.8825,146.596145
223.256389,146.596145
223.610833,146.586466
223.983333,146.586466
224.0425,146.576788
224.377778,146.567109
224.748611,146.557431
225.176111,146.567109
225.899167,146.538074
226.246667,146.528396
226.537222,146.528396
227.641111,146.509039
228.058611,146.499361
228.406389,146.499361
228.736111,146.499361
229.098333,146.489682
229.739167,146.480004
230.159444,146.470326
230.931111,146.460647
231.266111,146.460647
231.959722,146.450969
232.237222,146.450969
232.283056,146.44129
232.623889,146.431612
233.024444,146.431612
233.358611,146.431612
233.720833,146.412255
234.125278,146.421934
234.497222,146.412255
234.922778,146.402577
235.278611,146.402577
235.5675,146.392898
235.993889,146.38322
236.346389,146.38322
237.451944,146.354185
237.846667,146.354185
239.221111,146.305793
239.576389,146.286436
239.939722,146.276758
240.280833,146.267079
240.634722,146.257401
241.045,146.238044
241.748889,146.218688
242.140833,146.218688
242.506389,146.199331
242.654444,146.189652
243.522778,146.170296
243.951111,146.14126
244.270278,146.14126
244.599167,146.14126
245.036389,146.121904
245.636111,146.112225
246.031389,146.112225
246.358611,146.112225
246.364167,146.112225
246.403056,146.131582
246.663611,146.160617
247.344167,146.209009
247.393056,146.209009
247.729444,146.170296
248.159722,146.131582
248.510278,146.092868
248.853333,146.063833
249.4725,146.034798
249.880278,146.02512
250.272222,146.005763
250.659444,145.996085
251.405556,145.986406
251.7875,145.976728
252.219444,145.957371
252.580278,145.957371
253.339722,145.928336
254.093333,145.918658
255.633889,145.908979
256.021667,145.899301
256.361389,145.899301
256.648889,145.899301
256.691389,145.899301
257.099722,145.899301
257.468611,145.889622
257.850833,145.870266
258.203056,145.870266
258.984722,145.850909
260.216389,145.831552
260.596944,145.821874
261.025,145.821874
261.338611,145.812195
261.731389,145.802517
262.148611,145.792838
262.481389,145.78316
262.893889,145.773482
263.211667,145.754125
263.898611,145.734768
264.240833,145.744447
264.987222,145.696055
265.349167,145.686376
265.9075,145.792838
266.717222,145.618628
267.590278,145.415381
267.96,145.347633
268.200833,145.347633
268.255,145.299241
269.126389,145.202457
269.414444,145.163743
269.803056,145.12503
270.264444,145.076638
271.019722,145.018568
271.337778,144.979854
272.387778,144.921784
272.692222,144.892748
273.084167,144.863713
274.527222,144.776608
275.008333,144.747573
275.298333,144.718538
275.9975,144.679824
276.267222,144.670146
276.566389,144.650789
279.586111,144.544327
279.979444,144.52497
280.726667,144.505613
281.130278,144.495935
281.465,144.486256
281.895278,144.476578
282.647778,144.466899
283.050556,144.457221
283.393611,144.457221
284.400278,144.428186
284.761667,144.418508
285.504167,144.399151
285.896111,144.379794
286.266111,144.370116
286.600833,144.370116
287.266389,144.360437
287.603333,144.360437
288.720278,144.321724
289.129167,144.312045
289.456667,144.302367
289.888611,144.302367
290.268333,144.292688
290.633333,144.292688
291.035,144.273332
291.404167,144.273332
292.155278,144.263653
292.961111,144.244297
293.292222,144.215261
293.683889,144.215261
294.038333,144.215261
294.071667,144.215261
294.421944,144.205583
294.770833,144.195905
295.165,144.186226
295.488333,144.186226
295.939722,144.186226
296.589444,144.166869
296.961389,144.157191
297.330278,144.157191
297.691111,144.147513
298.114722,144.128156
298.450556,144.147513
298.85,144.118478
299.510833,144.108799
300.000556,144.099121
300.3275,144.089442
300.7,144.099121
301.133611,144.089442
301.484444,144.089442
301.871389,144.079764
302.449722,144.070086
302.877778,144.070086
303.220278,144.070086
303.587778,144.060407
304.3875,144.070086
304.697222,144.050729
305.45,144.04105
305.873056,144.021694
306.247222,144.012015
306.469444,144.012015
306.5025,144.002337
306.929722,144.002337
307.263056,143.98298
307.595833,143.963623
307.728889,143.953945
308.733333,143.905553
309.136944,143.895875
309.524444,143.886196
309.931389,143.876518
310.296111,143.866839
310.619722,143.857161
310.971111,143.847483
311.298056,143.828126
311.613056,143.818448
312.300556,143.799091
313.013889,143.789412
313.328333,143.779734
313.691389,143.779734
314.079722,143.760377
314.300278,143.770056
314.655,143.750699
315.075556,143.731342
315.761667,143.711985
316.198056,143.702307
316.563889,143.68295
317.343611,143.653915
317.712778,143.634558
318.083611,143.634558
318.131111,143.62488
318.482778,143.605523
318.866111,143.595845
319.208333,143.576488
319.935,143.547453
320.616944,143.508739
320.998056,143.499061
321.685556,143.460347
322.070833,143.450669
322.326667,143.44099
322.653056,143.421634
323.035833,143.402277
323.353056,143.392598
324.408056,143.334528
324.7925,143.315171
325.195833,143.295815
325.52,143.276458
326.304167,143.218387
326.623611,143.199031
327.047222,143.179674
327.393611,143.160317
327.733333,143.14096
328.143333,143.121604
328.46,143.102247
328.885,143.08289
329.133611,143.053855
329.495833,143.034498
330.139444,143.034498
330.185556,143.005463
330.524167,142.976428
330.931944,142.947393
331.303056,142.928036
331.618611,142.908679
331.744167,142.899001
332.661667,142.850609
333.080833,142.831252
333.421944,142.811895
333.766667,142.78286
334.123611,142.763503
334.899722,142.72479
335.266111,142.705433
335.591944,142.686076
336.03,142.666719
336.280833,142.657041
336.600278,142.628006
336.991944,142.598971
337.701389,142.560257
338.123056,142.5409
338.513056,142.511865
338.909167,142.502187
339.235278,142.48283
339.584444,142.463473
339.976389,142.434438
340.371111,142.415081
340.795556,142.395725
341.193611,142.376368
341.9425,142.308619
343.105,142.24087
343.48,142.221514
343.896111,142.202157
344.209167,142.202157
344.262778,142.1828
344.614722,142.163443
345.425278,142.115051
345.849722,142.105373
346.209722,142.086016
346.536389,142.086016
346.569722,142.066659
347.244167,142.066659
347.286111,142.086016
347.621389,142.066659
348.041389,142.008589
348.415,141.979554
348.860556,141.950519
349.205,141.931162
349.494722,141.921484
350.184167,141.88277
350.479444,141.88277
350.967222,141.834378
351.729167,141.795665
352.121111,141.776308
352.429444,141.756951
352.848056,141.747273
353.216944,141.708559
353.545,141.708559
353.588611,141.698881
353.990833,141.669846
354.342222,141.660167
354.706389,141.64081
355.118056,141.611775
355.306667,141.611775
355.439722,141.611775
355.796667,141.602097
357.061667,141.514991
357.385,141.495635
358.073333,141.456921
358.419444,141.447243
359.216111,141.379494
359.960278,141.350459
360.325556,141.331102
360.660833,141.321424
361.056944,141.302067
361.415278,141.273032
361.840278,141.263353
362.423056,141.243997
362.745833,141.243997
363.125,141.22464
363.461389,141.205283
363.843611,141.185926
364.194167,141.166569
364.504167,141.156891
364.894722,141.137534
365.209167,141.118177
365.585,141.098821
365.968889,141.079464
366.317222,141.060107
366.581944,141.060107
366.630278,141.050429
367.045833,141.031072
367.39,141.021394
367.7575,141.011715
368.550556,140.963323
368.951389,140.953645
369.64,140.914931
370.037222,140.905253
371.134444,140.847183
371.898056,140.808469
372.2425,140.789112
372.578889,140.769756
372.993333,140.750399
373.321111,140.74072
374.416667,140.692328
374.748056,140.68265
375.083056,140.68265
375.126667,140.672972
375.495556,140.653615
375.893889,140.643937
376.252222,140.614901
377.445278,140.576188
377.736389,140.566509
378.145,140.547153
378.485278,140.547153
378.875556,140.498761
379.198611,140.498761
379.775556,140.489082
380.648333,140.460047
381.091389,140.450369
381.464167,140.431012
381.851667,140.411655
382.207222,140.392298
382.555833,140.372942
382.969722,140.353585
383.291944,140.343906
383.633056,140.334228
384.031111,140.314871
384.315278,140.295515
384.695,140.295515
384.984167,140.285836
385.317222,140.266479
386.120278,140.218087
386.88,140.189052
387.1875,140.179374
387.991667,140.150339
388.375556,140.130982
389.17,140.092268
389.602222,140.08259
390.026111,140.063233
390.387222,140.043876
391.0825,140.034198
391.116111,140.02452
391.467778,140.014841
391.743056,139.995485
392.156389,139.976128
392.458333,139.956771
392.887778,139.947093
393.146111,139.918057
393.5125,139.908379
393.942222,139.889022
394.653333,139.869666
395.072222,139.850309
395.435,139.84063
395.853333,139.821274
396.561667,139.78256
396.976944,139.772882
397.908056,139.743846
398.272222,139.743846
398.948333,139.705133
399.172778,139.705133
399.390278,139.695455
399.601944,139.685776
399.898056,139.685776
400.128889,139.666419
400.3125,139.656741
400.699167,139.647063
401.1675,139.618027
401.379722,139.618027
401.869444,139.588992
402.071389,139.588992
402.365278,139.588992
402.883611,139.569636
403.086111,139.559957
403.3,139.550279
403.489167,139.550279
403.522222,139.550279
403.930833,139.5406
404.524167,139.521244
404.740556,139.511565
404.999444,139.501887
405.202222,139.501887
