time,pressure
0.0,99.961763
0.239722,96.102022
0.4575,94.281517
0.6725,92.861698
0.836111,91.991611
0.8675,91.991611
0.981944,91.301542
1.145556,90.622119
1.273056,90.15175
1.428056,89.63202
1.770556,88.812261
1.929444,88.152195
2.073056,87.661501
2.243056,87.111768
2.425,86.601717
2.593056,86.171997
2.761944,85.761633
2.883889,85.481928
3.039167,85.151895
3.383056,84.371817
3.575833,84.381495
3.778889,84.021459
3.908889,83.792081
4.0775,83.511408
4.229167,83.271384
4.348611,83.081688
4.571944,82.741976
4.741111,82.501952
4.887222,82.501952
4.9175,82.271607
5.098333,82.042229
5.171389,82.042229
5.238889,81.841886
5.4075,81.641544
5.656389,81.341514
5.839722,81.142139
5.965278,80.992124
6.111111,80.831463
6.294722,80.632088
6.4175,80.50143
6.598611,80.311733
6.77,80.161718
6.942778,80.002025
7.112222,79.822007
7.2875,79.671992
7.458611,79.531655
7.699167,79.332281
7.885278,79.171619
8.076389,79.011926
8.260556,78.861911
8.4225,78.751577
8.578333,78.642212
8.771944,78.492197
8.986944,78.312179
9.153889,78.201845
9.181667,78.201845
9.278333,78.121514
9.400833,78.042152
9.468056,78.042152
9.561667,77.931818
9.742778,77.791481
9.8725,77.712119
10.040556,77.601785
10.211667,77.502098
10.331944,77.431445
10.503056,77.32208
10.673056,77.221424
10.843333,77.131415
11.006111,77.041406
11.164167,76.951397
11.288056,76.872035
11.408056,76.782026
11.586944,76.692017
11.745278,76.592329
11.861389,76.521677
12.033611,76.421989
12.194722,76.33198
12.353056,76.221647
12.479722,76.151962
12.639167,75.962266
12.791944,75.821929
12.945833,75.701917
13.073333,75.60223
13.193611,75.521899
13.356667,75.411566
13.518889,75.411566
13.539167,75.281875
13.691944,75.161863
13.985,75.161863
14.046944,74.861833
14.226111,74.711818
14.362778,74.612131
14.4975,74.501797
14.669167,74.372107
14.810278,74.261773
14.943333,74.171764
15.098889,74.031428
15.213889,73.941419
15.369167,73.832053
15.498611,73.721719
15.716944,73.562026
15.881667,73.532023
16.016111,73.511698
16.138056,73.481695
16.230278,73.451692
16.6375,73.291999
16.769167,73.241671
16.944722,73.162309
17.065833,73.111981
17.249444,73.042297
17.410556,72.982291
17.586389,72.892282
17.752222,72.832276
17.891667,72.77227
18.018333,72.77227
18.0575,72.691939
18.210278,72.631933
18.283056,72.631933
18.330833,72.581605
18.4925,72.502243
18.663889,72.43159
18.831944,72.352228
18.977222,72.292222
19.140278,72.232216
19.255556,72.202213
19.444722,72.091879
19.634167,72.022195
19.821944,71.941864
19.948056,71.891536
20.075833,71.83153
20.223889,71.771524
20.396389,71.711518
20.599167,71.611831
20.726111,71.561503
20.888056,71.501497
21.004722,71.461816
21.1325,71.40181
21.271389,71.341804
21.433056,71.281798
21.661944,71.182111
21.823333,71.111458
21.975278,71.062099
22.148889,70.991446
22.286111,70.991446
22.32,70.93144
22.474722,70.871434
22.560833,70.871434
22.685556,70.781425
22.811944,70.741744
22.956111,70.681738
23.091111,70.642057
23.233611,70.571404
23.458333,70.482363
23.659444,70.422357
23.833056,70.362351
23.983889,70.302345
24.1475,70.242339
24.268056,70.192012
24.401667,70.15233
24.492778,70.102003
24.665278,70.041997
24.812222,69.991669
24.965278,69.931663
25.108611,69.90166
25.250556,69.841654
25.436667,69.781648
25.633056,69.711964
25.764167,69.661636
25.903611,69.612276
26.048889,69.55227
26.243056,69.47194
26.415,69.421612
26.567222,69.421612
26.592778,69.342249
26.768889,69.3016
26.848889,69.3016
26.948889,69.231916
27.0875,69.181588
27.234444,69.132228
27.363333,69.091579
27.538611,69.031573
27.698056,68.982213
27.841389,68.931886
28.030278,68.87188
28.16,68.832198
28.298333,68.791549
28.471111,68.731543
28.701944,68.661859
28.860556,68.611531
29.0425,68.551525
29.234722,68.491519
29.421667,68.442159
29.634167,68.382153
29.989444,68.281498
30.178056,68.232138
30.613889,68.112126
30.792222,68.061799
30.872778,68.061799
30.9675,68.001793
31.078889,67.962111
31.158889,67.962111
31.267222,67.921462
31.444167,67.872102
31.659722,67.821775
31.834722,67.771447
32.017778,67.722087
32.147778,67.692084
32.273056,67.662081
32.44,67.621432
32.669167,67.561426
32.835833,67.50142
33.0225,67.461739
33.181111,67.422057
33.348889,67.392054
33.487778,67.351405
33.668889,67.32237
33.838056,67.272042
34.008611,67.232361
34.187222,67.182033
34.3675,67.142352
34.547222,67.101703
34.706389,67.0717
34.888056,67.02234
35.015556,66.981691
35.147222,66.951688
35.175278,66.951688
35.268056,66.932331
35.434722,66.891682
35.469722,66.891682
35.655833,66.842322
35.817222,66.812319
35.952778,66.782316
36.068611,66.752313
36.1975,66.731988
36.371111,66.692307
36.542778,66.591652
36.706944,66.501643
36.878333,66.42228
37.018889,66.371952
37.151944,66.321625
37.280556,66.272265
37.399167,66.221937
37.571944,66.17161
37.7425,66.12225
37.875278,66.081601
37.976389,66.051598
38.027222,66.032241
38.069444,66.011916
38.156667,65.991592
38.201111,65.972235
38.300833,65.942232
38.383611,65.921907
38.430556,65.912229
38.483056,65.891904
38.596389,65.861901
38.671389,65.841577
38.7625,65.82222
38.818056,65.801895
38.864722,65.792217
38.911667,65.771892
39.050556,65.741889
39.227778,65.691562
39.357778,65.661559
39.483889,65.631556
39.5525,65.631556
39.645,65.612199
39.796667,65.552193
39.824722,65.552193
39.934722,65.52219
40.0875,65.492187
40.246944,65.451538
40.539722,65.381853
40.718611,65.342172
40.89,65.301523
41.023056,65.282166
41.138056,65.252163
41.249444,65.231838
41.402778,65.201835
41.604444,65.162154
41.758611,65.132151
41.888056,65.111826
42.056111,65.081823
42.224722,65.042142
42.340278,65.021817
42.478611,64.991814
42.641111,64.952133
42.833611,64.92213
42.973889,64.892127
43.139444,64.862124
43.3,64.832121
43.505278,64.791472
43.678333,64.761469
43.807222,64.731466
43.839444,64.731466
43.972778,64.712109
44.106389,64.682106
44.133056,64.682106
44.274167,64.652103
44.441944,64.6221
44.639722,64.581451
44.850556,64.551448
45.020833,64.521445
45.141389,64.502088
45.277778,64.472085
45.4425,64.442082
45.654722,64.401433
45.820556,64.37143
45.967222,64.341427
46.095556,64.32207
46.251667,64.301745
46.426667,64.281421
46.610278,64.241739
46.735,64.222382
46.903056,64.192379
47.051111,64.172055
47.203611,64.142052
47.338889,64.121727
47.543333,64.091724
47.711944,64.061721
47.885278,64.031718
48.016944,64.012361
48.136944,63.992037
48.1725,63.992037
48.276667,63.971712
48.409167,63.952355
48.436944,63.952355
48.621389,63.922352
48.74,63.881703
48.886667,63.862346
49.065556,63.842022
49.222222,63.80234
49.389722,63.782016
49.585278,63.752013
49.737222,63.731688
49.878889,63.712331
50.052778,63.682328
50.2325,63.652325
50.350556,63.641679
50.555278,63.611676
50.729722,63.581673
50.906111,63.55167
51.063333,63.532313
51.225833,63.511989
51.385556,63.481986
51.501111,63.461661
51.709167,63.431658
51.891389,63.412301
52.030278,63.382298
52.164722,63.361974
52.277778,63.341649
52.417778,63.331971
52.454167,63.331971
52.615833,63.301968
52.723611,63.301968
52.790278,63.271965
52.956944,63.262286
53.068056,63.241962
53.226389,63.221637
53.3875,63.191634
53.593611,63.172277
53.76,63.142274
53.8875,63.131628
54.028889,63.112271
54.158611,63.091947
54.274167,63.071622
54.413889,63.061944
54.583889,63.041619
54.774167,63.011616
54.946389,62.992259
55.117222,62.971935
55.279722,62.95161
55.403611,62.941932
55.561111,62.932253
55.723611,62.911929
55.888056,62.891604
56.018333,62.861601
56.150278,62.842244
56.275833,62.831598
56.421944,62.812241
56.591111,62.791917
56.753333,62.791917
56.7775,62.761914
56.959722,62.752235
57.04,62.752235
57.095,62.731911
57.219444,62.701908
57.348611,62.701908
57.466111,62.681583
57.635833,62.662226
57.808333,62.632223
57.970278,62.611899
58.086389,62.60222
58.215278,62.581896
58.358333,62.572217
58.482222,62.551893
58.634722,62.531568
58.790278,62.512211
58.9625,62.482208
59.133333,62.461884
59.296944,62.452205
59.431944,62.431881
59.595556,62.411556
59.750556,62.381553
59.889722,62.371875
60.039167,62.341872
60.176111,62.321547
60.306667,62.311869
60.478056,62.281866
60.653611,62.272187
60.800278,62.251863
60.973056,62.22186
61.063889,62.22186
61.092778,62.201535
61.255833,62.182178
61.329444,62.182178
61.411389,62.161854
61.603056,62.131851
61.773056,62.111526
61.8975,62.092169
62.003056,62.081523
62.153889,62.071845
62.275278,62.05152
62.415278,62.021517
62.573056,62.00216
62.742778,61.981836
62.875278,61.961511
63.034167,61.942154
63.166667,61.931508
63.291111,61.912151
63.415833,61.901505
63.587222,61.871502
63.759444,61.852145
63.891944,61.822142
64.015833,61.811496
64.134167,61.792139
64.241667,61.781493
64.626667,61.732133
64.771944,61.711809
64.904444,61.691484
65.071944,61.661481
65.213333,61.642124
65.338333,61.642124
65.366389,61.6218
65.495,61.612121
65.610556,61.612121
65.665833,61.582118
65.839167,61.561794
66.011389,61.541469
66.276667,61.511466
66.398056,61.492109
66.598056,61.462106
66.754722,61.441782
66.896389,61.432103
67.013333,61.411779
67.149722,61.391454
67.283889,61.381776
67.399722,61.372097
67.591667,61.342094
67.744167,61.331448
67.898333,61.291767
68.058333,61.282088
68.208611,61.261764
68.331389,61.241439
68.491111,61.222082
68.666111,61.201758
68.803889,61.192079
68.968333,61.171755
69.084722,61.162076
69.211944,61.141752
69.328889,61.132073
69.503889,61.111749
69.648056,61.111749
69.673611,61.092392
69.843056,61.072067
69.905278,61.072067
69.960556,61.062389
70.1,61.042064
70.228333,61.032386
70.368056,61.02174
70.556111,60.991737
70.713333,60.982058
70.870278,60.961734
71.027222,60.952055
71.151667,60.931731
71.276944,60.912374
71.401667,60.901728
71.614167,60.882371
71.761389,60.862046
71.850833,60.852368
72.005278,60.832043
72.133611,60.811719
72.265556,60.811719
72.443889,60.772037
72.651667,60.742034
72.823056,60.732356
72.952778,60.712031
73.069444,60.702353
73.242778,60.67235
73.395278,60.661704
73.6,60.652025
73.758611,60.631701
73.888333,60.622022
73.923333,60.622022
74.011944,60.592019
74.146667,60.582341
74.201111,60.582341
74.270278,60.582341
74.428333,60.562016
74.573611,60.541692
74.731111,60.532013
74.858889,60.522335
75.030278,60.492332
75.151389,60.481686
75.287222,60.472007
75.414167,60.462329
75.579444,60.442004
75.751944,60.42168
75.897778,60.402323
76.022778,60.391677
76.146389,60.381998
76.282778,60.361674
76.414444,60.351995
76.6125,60.321992
76.751389,60.312314
76.88,60.271665
77.006944,60.271665
77.150278,60.261986
77.321667,60.241662
77.483333,60.211659
77.644444,60.20198
77.795833,60.181656
77.966111,60.162299
78.081667,60.162299
78.216667,60.162299
78.240833,60.132296
78.415,60.111971
78.523333,60.111971
78.616389,60.091647
78.801389,60.081968
78.969167,60.061644
79.094722,60.051965
79.222222,60.042287
79.393333,60.021962
79.604444,60.001638
79.895556,59.971635
80.034722,59.952278
80.191667,59.941632
80.361667,59.922275
80.492222,59.922275
80.656389,59.892272
80.835,59.871947
81.004722,59.851623
81.1775,59.832266
81.319722,59.82162
81.492222,59.802263
81.667222,59.781938
81.823611,59.761614
81.93,59.751935
82.098611,59.731611
82.223611,59.712254
82.359167,59.712254
82.527778,59.712254
82.560278,59.691929
82.740833,59.671605
82.901944,59.641602
83.071111,59.631923
83.239167,59.611599
83.396389,59.592242
83.598889,59.581596
83.7725,59.551593
83.88,59.541914
84.020278,59.532236
84.146944,59.511911
84.278056,59.502233
84.399444,59.491587
84.593056,59.461584
84.744444,59.451905
84.864722,59.442227
85.023056,59.431581
85.158333,59.412224
85.278889,59.401578
85.397222,59.391899
85.565,59.361896
85.720278,59.361896
85.878333,59.341572
86.016389,59.331893
86.163611,59.311569
86.286667,59.30189
86.399444,59.292212
86.574167,59.281566
86.735278,59.241884
86.863889,59.241884
87.021944,59.22156
87.142778,59.22156
87.270833,59.211881
87.399722,59.191557
87.609167,59.1722
87.778889,59.161554
87.946944,59.142197
88.111111,59.131551
88.206111,59.112194
88.206389,59.112194
88.572222,59.091869
88.780833,59.071545
88.946944,59.041542
89.097778,59.041542
89.203611,59.031863
89.338056,59.011539
89.5,59.00186
89.684167,58.971857
89.978056,58.932176
90.165556,58.911851
90.319722,58.891527
90.486667,58.861524
90.647222,58.851845
90.813889,58.821842
90.934167,58.801518
91.113611,58.771515
91.287222,58.752158
91.423333,58.722155
91.585,58.692152
91.753889,58.671827
91.869722,58.662149
92.015833,58.632146
92.181389,58.611821
92.358333,58.591497
92.541667,58.561494
92.7175,58.531491
92.880833,58.501488
93.012778,58.471485
93.1375,58.461806
93.269444,58.441482
93.396944,58.422125
93.594722,58.392122
93.759722,58.362119
93.889444,58.341794
94.033611,58.32147
94.1575,58.291467
94.291944,58.281788
94.411389,58.261464
94.593889,58.231461
94.750278,58.191779
94.871389,58.171455
95.002222,58.141452
95.137778,58.122095
95.295556,58.092092
95.437222,58.081446
95.644444,58.051443
95.95,58.011761
96.0725,57.991437
96.190833,57.97208
96.364722,57.951755
96.543333,57.932399
96.721389,57.902396
96.882222,57.891749
97.006944,57.861746
97.153056,57.84239
97.3025,57.831743
97.420556,57.812387
97.610278,57.792062
97.795278,57.771737
97.972778,57.752381
98.123333,57.732056
98.295833,57.711731
98.430278,57.711731
98.626111,57.662372
98.803056,57.651725
98.978611,57.632369
99.155833,57.612044
99.268889,57.602366
99.395556,57.582041
99.599722,57.561716
99.772778,57.552038
99.908333,57.531713
99.999722,57.522035
100.186944,57.512357
100.344722,57.482354
100.473333,57.471707
100.639167,57.462029
100.803889,57.441704
100.929167,57.432026
101.048333,57.422348
101.1825,57.402023
101.492222,57.37202
101.663611,57.362342
101.829167,57.342017
101.947222,57.342017
102.081111,57.321692
102.213611,57.312014
102.388056,57.291689
102.599722,57.282011
102.761667,57.272333
102.9125,57.252008
103.080556,57.24233
103.216389,57.222005
103.347778,57.222005
103.488889,57.20168
103.652222,57.192002
103.8275,57.161999
103.961389,57.152321
104.081111,57.141674
104.222778,57.131996
104.364444,57.111671
104.489167,57.101993
104.656389,57.092315
104.838056,57.07199
104.9675,57.062312
105.123056,57.062312
105.296389,57.062312
105.441944,57.051665
105.628611,57.032309
105.788611,57.021662
105.95,57.011984
106.075,57.002306
106.196111,56.991659
106.326389,56.972303
106.486389,56.961656
106.653333,56.951978
106.798333,56.9423
106.9625,56.921975
107.098611,56.912297
107.293056,56.90165
107.420556,56.882294
107.578611,56.871647
107.739722,56.852291
107.870833,56.841644
108.04,56.822288
108.228056,56.811641
108.427222,56.792285
108.587778,56.781638
108.7425,56.762282
108.860278,56.702276
109.024722,56.631623
109.193611,56.582264
109.363611,56.531936
109.568056,56.481608
109.741111,56.441927
109.888611,56.411924
110.018611,56.381921
110.166111,56.351918
110.298056,56.331593
110.405278,56.312237
110.608056,56.271587
110.738611,56.252231
110.857778,56.222228
111.021111,56.201903
111.162222,56.181578
111.280278,56.162222
111.391389,56.141897
111.580556,56.111894
111.748611,56.072213
112.020278,56.031563
112.166111,56.012207
112.273056,55.991882
112.609444,55.941554
112.738333,55.922198
112.898333,55.901873
113.033333,55.881548
113.163056,55.862192
113.285556,55.851545
113.423889,55.832189
113.5725,55.802186
113.733056,55.781861
113.858889,55.772183
114.001111,55.751858
114.123333,55.731533
114.306667,55.712177
114.471944,55.682174
114.665,55.661849
114.854444,55.622168
115.0125,55.611521
115.148889,55.581518
115.271944,55.562162
115.4375,55.541837
115.601667,55.521512
115.739167,55.502156
115.900556,55.491509
116.063889,55.472153
116.236667,55.44215
116.355833,55.421825
116.490833,55.4015
116.643611,55.382144
116.828611,55.361819
116.973333,55.331816
117.106389,55.311491
117.275556,55.301813
117.422222,55.281488
117.595278,55.251485
117.755,55.241807
117.8725,55.221482
118.011111,55.191479
118.180833,55.181801
118.339722,55.151798
118.405556,55.14212
118.555556,55.131473
118.730833,55.091792
118.8775,55.071467
119.062222,55.041464
119.121667,55.041464
119.203611,55.031786
119.329444,55.011461
119.551944,54.981458
119.720278,54.962102
119.890833,54.932099
120.034444,54.911774
120.210556,54.902096
120.365556,54.881771
120.611944,54.831443
120.743889,54.821765
120.860833,54.802408
121.0325,54.782084
121.135278,54.772405
121.300556,54.742402
121.4975,54.722078
121.700556,54.692075
121.799444,54.67175
121.973333,54.662072
122.133333,54.632069
122.297222,54.611744
122.444444,54.592387
122.654167,54.562384
122.839167,54.532381
123.009444,54.502378
123.138889,54.502378
123.180278,54.502378
123.249722,54.482054
123.401667,54.461729
123.61,54.431726
123.750833,54.422048
123.862778,54.401723
124.020278,54.392045
124.148889,54.362042
124.261944,54.352363
124.419722,54.332039
124.581944,54.311714
124.735278,54.302036
124.8975,54.281711
125.015556,54.262354
125.157222,54.251708
125.294167,54.232351
125.413056,54.221705
125.574167,54.191702
125.743611,54.172345
125.873611,54.161699
126.028333,54.152021
126.148056,54.122018
126.284167,54.122018
126.424444,54.101693
126.588056,54.07169
126.746389,54.052333
126.864444,54.032009
127.001667,54.032009
127.181111,54.011684
127.343889,53.981681
127.541944,53.972003
127.702778,53.942
127.881111,53.932321
128.016944,53.911997
128.165278,53.891672
128.331944,53.881994
128.48,53.872315
128.655833,53.851991
128.817778,53.821988
128.943889,53.812309
129.062778,53.791985
129.235,53.782306
129.355278,53.77166
129.488056,53.761982
129.661111,53.741657
129.844167,53.711654
129.98,53.701976
130.156111,53.681651
130.225,53.681651
130.488333,53.64197
130.659722,53.632291
130.918889,53.602288
131.070278,53.581964
131.108333,53.581964
131.233889,53.572285
131.391944,53.551961
131.591667,53.531636
131.734722,53.512279
131.863889,53.512279
132.029722,53.491955
132.150556,53.47163
132.291667,53.47163
132.4325,53.441627
132.752222,53.42227
132.894722,53.401946
133.025,53.392267
133.145,53.371943
133.283889,53.362264
133.439444,53.34194
133.634167,53.332261
133.761667,53.311937
133.872222,53.302258
133.989167,53.291612
134.153056,53.281934
134.268333,53.261609
134.404444,53.251931
134.580556,53.231606
134.738056,53.221928
134.863611,53.212249
135.027778,53.191925
135.120833,53.191925
135.147778,53.182246
135.266944,53.161922
135.385,53.152243
135.57,53.131919
135.758611,53.111594
135.887778,53.101916
136.015,53.092237
136.139167,53.071913
136.242222,53.071913
136.2425,53.071913
136.610556,53.021585
136.767778,53.002228
136.904167,52.991582
137.061944,52.972225
137.227778,52.951901
137.362222,52.942222
137.551389,52.921898
137.720556,52.912219
137.873333,52.891895
138.005,52.882216
138.142778,52.87157
138.2525,52.852213
138.425,52.841567
138.605278,52.82221
138.778056,52.801886
138.938889,52.781561
139.108333,52.762204
139.274167,52.74188
139.449722,52.711877
139.64,52.691552
139.792778,52.672195
139.944444,52.651871
140.098889,52.631546
140.22,52.601543
140.340278,52.591865
140.466944,52.57154
140.6675,52.552183
140.830556,52.511534
140.932778,52.501856
141.073056,52.481531
141.223056,52.451528
141.336667,52.44185
141.490556,52.411847
141.648333,52.381844
141.805,52.361519
141.979722,52.321838
142.156111,52.301513
142.2975,52.27151
142.414444,52.261832
142.606944,52.22215
142.770278,52.192147
142.925833,52.171823
143.081389,52.132141
143.246389,52.111817
143.406944,52.081814
143.615556,52.051811
143.754167,52.031486
143.903333,51.991805
144.066111,51.961802
144.230556,51.931799
144.346667,51.911474
144.548056,51.871793
144.709167,51.84179
144.906389,51.802108
145.103333,51.772105
145.262778,51.742102
145.4325,51.712099
145.614444,51.682096
145.777778,51.661772
145.952222,51.62209
146.071667,51.592087
146.195,51.582409
146.349167,51.54176
146.471111,51.532081
146.6425,51.481754
146.798333,51.462397
146.973056,51.432394
147.125278,51.402391
147.283056,51.382066
147.415833,51.361742
147.583889,51.342385
147.752778,51.301736
147.891667,51.282379
148.033889,51.262054
148.208056,51.232051
148.362222,51.211727
148.48,51.19237
148.64,51.172045
148.971944,51.112039
149.149722,51.091715
149.308611,51.072358
149.48,51.042355
149.663611,51.02203
149.853889,50.992027
150.012778,50.962024
150.127222,50.952346
150.274167,50.922343
150.439444,50.902018
150.641944,50.881694
150.801111,50.851691
150.963056,50.842012
