time,pressure
0.0,201.045031
0.162778,192.421588
0.368056,185.501542
0.618056,180.642991
0.786667,178.920238
0.932778,177.671726
1.094167,177.720118
1.293056,177.845937
1.548333,178.494389
1.717222,179.026701
1.861667,179.239625
2.046667,180.275213
2.226944,180.701062
2.411944,181.049484
2.658056,181.291443
2.831667,181.378549
3.0225,181.359192
3.219167,181.494689
3.393611,181.630187
3.66,181.581795
3.831944,181.543081
4.037222,181.514046
4.22,181.581795
4.406944,181.649544
4.671111,181.678579
4.846389,181.804398
5.032778,182.075393
5.3025,182.791593
5.585556,183.294869
5.876111,183.565864
6.026389,183.440045
6.179444,183.130337
6.346944,182.762558
6.627778,182.636739
6.771944,183.004518
6.93,183.594899
7.082778,184.136889
7.236944,184.572416
7.383889,184.930517
7.627222,185.182155
7.794444,185.230547
7.951667,185.240225
8.131667,185.288617
10.348611,185.908034
10.581111,182.820628
10.730278,180.536529
10.876667,178.233073
11.039167,176.723244
11.135833,176.181255
11.286667,175.465054
11.514444,174.506894
11.690833,173.548733
11.83,172.532503
11.941111,171.545307
12.036111,170.906534
12.178611,170.20969
12.361667,169.72577
12.614167,169.193459
12.793333,168.82568
12.953056,168.554686
13.097222,168.40951
13.249722,168.254656
13.406389,168.138515
13.727778,167.857842
13.929722,167.799771
14.2025,167.848163
14.341667,167.857842
14.510278,167.857842
14.706111,167.732023
14.953056,167.586847
15.109722,167.383601
15.288333,167.335209
15.503611,167.073892
15.663333,167.054536
15.805278,167.131963
15.955833,167.112606
16.111389,167.141641
16.291667,167.45135
16.536944,167.461028
16.711944,167.528777
16.908333,167.722344
17.21,167.838485
17.378333,168.322404
17.624722,169.028927
17.777778,168.361118
17.941389,167.732023
18.058611,167.548133
18.253056,167.112606
18.475556,167.006144
18.618056,167.006144
18.7225,167.015822
18.919722,166.841611
19.159167,166.638365
19.361389,166.512546
19.710833,166.377049
19.852222,166.415762
20.006667,166.144767
20.480556,166.299621
20.63,166.377049
20.803611,166.289943
20.9425,166.386727
21.11,166.038305
21.505833,165.970556
21.664444,166.183481
22.105,166.018948
22.251111,165.612456
22.426389,165.864094
22.672222,165.46728
22.825556,165.273712
22.985278,165.312426
23.24,165.660848
23.474167,165.941521
23.636667,166.106054
23.754167,166.193159
23.9125,166.348013
24.073333,166.348013
24.244722,166.222194
24.374167,166.106054
24.774722,165.641491
24.889722,165.52535
25.026111,165.380175
25.171944,165.254356
25.3,165.16725
25.563889,165.089823
25.789722,164.944647
25.962778,164.828507
26.117222,164.770436
26.255,164.741401
26.404722,164.722044
26.626389,164.673652
26.791944,164.634939
26.939722,164.644617
27.092778,164.693009
27.270556,164.751079
27.408611,164.799471
27.766944,164.828507
27.916667,164.954326
28.078333,165.070466
28.1675,165.118858
28.508889,165.089823
28.671667,164.702688
28.858056,164.218768
29.009167,163.90906
29.145833,163.763884
29.286944,164.034879
29.5925,164.789793
29.720833,164.944647
29.869722,165.070466
30.018333,165.128537
30.189722,165.138215
30.315833,165.10918
30.638611,164.847863
30.7775,164.693009
30.931667,164.615582
31.099444,164.596225
31.214167,164.654296
31.3625,164.789793
31.594722,165.196285
31.746944,165.389853
32.0525,165.138215
32.210556,165.041431
32.376944,164.954326
32.604167,164.80915
32.757778,164.673652
32.901389,164.576869
33.066389,164.615582
33.184444,164.615582
33.520556,164.56719
33.682778,164.470406
33.831667,164.131663
33.968056,163.638065
34.124722,163.202538
34.260833,162.892829
34.385,162.805724
34.595,163.115432
34.768611,163.434819
34.913333,163.802598
35.209722,164.722044
35.375833,164.731723
35.654444,164.528477
35.797222,164.402658
36.085556,164.170376
36.252222,164.160698
36.496667,164.180055
36.618611,164.141341
36.790833,163.957452
36.951389,163.589673
37.103889,163.057362
37.260833,162.670226
37.390556,162.476658
37.630833,162.960578
37.786667,163.492889
38.109722,164.121984
38.154722,164.121984
38.288333,164.131663
38.539444,164.073592
38.794722,164.131663
38.977778,164.180055
39.106111,164.180055
39.151389,164.121984
39.510556,162.979935
39.646111,162.602478
39.785833,162.341161
39.940833,162.46698
40.131389,162.854116
40.305833,163.589673
40.527222,164.402658
40.646111,164.538155
40.804444,164.412336
40.958056,164.238125
41.115,164.112306
41.278611,163.996165
41.430556,163.928417
41.664444,163.812276
41.783889,163.802598
41.942222,163.841311
42.064722,163.850989
42.280278,163.773562
42.478611,163.42514
42.646389,162.892829
42.798611,162.505694
42.944167,162.312126
43.297778,162.921864
43.516111,163.647743
43.670556,163.889703
43.81,163.812276
44.0875,163.60903
44.191944,163.550959
44.357222,163.579995
44.575278,163.618708
44.719444,163.628387
44.908611,163.589673
45.052778,163.376748
45.204167,163.076718
45.362222,162.670226
45.582778,162.360518
45.691944,162.40891
45.851111,162.815402
46.048611,163.454176
46.207778,163.521924
46.362778,163.502568
46.606944,163.454176
46.756944,163.386427
46.930556,163.309
47.098889,163.270286
47.264167,163.260608
47.5175,163.357392
47.656389,163.357392
47.781667,163.338035
47.936944,163.231573
48.087222,162.941221
48.223611,162.612156
48.378333,162.186307
48.745,161.992739
48.902778,162.544407
49.068611,163.221894
49.2025,163.444497
49.3475,163.299321
49.516389,163.154146
49.831667,162.989613
50.004722,163.00897
50.239722,163.038005
50.484722,162.950899
50.655833,162.660548
50.798611,162.263734
50.986389,161.876598
51.181111,161.818528
51.283611,161.983061
51.681944,162.873472
51.846111,162.737975
52.008056,162.650869
52.153333,162.592799
52.310278,162.544407
52.584444,162.486337
52.815833,162.46698
52.964444,162.515372
53.169167,162.563764
53.317222,162.612156
53.523333,162.573442
53.677778,162.302448
53.818611,161.886277
53.969167,161.470106
54.114722,161.199111
54.287222,161.228147
54.532222,162.079845
54.675833,162.563764
54.808611,162.592799
54.964444,162.486337
55.133333,162.360518
55.266389,162.302448
55.423333,162.195985
55.645278,162.157272
55.935833,162.137915
56.075278,162.137915
56.231389,162.089523
56.384167,162.041131
56.619167,161.828207
56.7475,161.634639
56.851111,161.479785
57.023056,161.334609
57.155833,161.441071
57.310556,161.741101
57.544444,162.012096
57.692222,162.031453
57.868889,162.070166
58.019167,162.041131
58.261389,161.963704
58.52,162.021774
58.669444,162.070166
58.839722,162.060488
59.068333,162.002418
59.235833,161.799171
59.386111,161.450749
59.715556,161.034579
59.877778,161.315252
60.072222,161.80885
60.221944,162.195985
60.355833,162.215342
60.703333,162.089523
60.868611,162.031453
61.012222,161.983061
61.177778,161.954026
61.328889,161.954026
61.555556,162.079845
61.710556,162.118558
61.858333,162.128237
62.051111,162.070166
62.193889,161.963704
62.335,161.789493
62.556389,161.547533
62.704722,161.528177
62.880833,161.741101
63.058611,162.050809
63.254167,162.22502
63.403333,162.254056
63.720556,162.331483
63.880833,162.379875
64.166667,162.350839
64.351944,162.273412
64.573333,161.886277
64.718611,161.605604
64.934167,161.450749
65.082222,161.586247
65.268333,162.002418
65.425,162.302448
65.627778,162.341161
65.789444,162.350839
65.943056,162.428267
66.213889,162.457302
66.373889,162.46698
66.606389,162.534729
66.722222,162.544407
66.879167,162.505694
67.020833,162.563764
67.478333,162.292769
67.631944,162.050809
67.781389,161.653996
67.9275,161.344287
68.080556,161.20879
68.223333,161.286217
68.393611,161.712066
68.649167,162.060488
68.909167,161.973382
69.009167,161.944347
69.175556,161.915312
69.312778,161.915312
69.558611,161.837885
69.715833,161.789493
69.880833,161.644317
70.015,161.460428
70.153333,161.315252
70.299722,161.218468
70.502222,161.26686
70.690833,161.402358
70.840833,161.489463
71.085556,161.615282
71.231389,161.62496
71.366667,161.634639
71.589444,161.595925
71.738611,161.547533
71.88,161.528177
72.078333,161.557212
72.285,161.586247
72.545556,161.595925
72.810833,161.20879
72.969167,160.850689
73.1375,160.570016
73.291667,160.521624
73.521667,161.005544
73.652222,161.441071
73.790278,161.799171
73.873611,161.837885
73.993889,161.770136
74.148333,161.663674
74.299167,161.615282
74.532222,161.537855
74.793056,161.557212
74.975278,161.547533
75.122778,161.528177
75.3075,161.441071
75.555,161.218468
75.761667,161.170076
75.906667,161.20879
76.045556,161.32493
76.191389,161.450749
76.513056,161.653996
76.833056,161.644317
76.992778,161.595925
77.146944,161.605604
77.286667,161.663674
77.493611,161.731423
77.658333,161.779815
77.826111,161.712066
77.955,161.528177
78.109722,161.20879
78.277778,160.850689
78.493333,160.753906
78.643611,160.928117
78.786667,161.295895
78.954722,161.731423
79.110278,161.886277
79.276389,161.847563
79.515833,161.789493
79.667778,161.750779
79.823333,161.692709
79.966389,161.634639
80.125,161.62496
80.2625,161.576568
80.404167,161.518498
80.62,161.460428
80.744167,161.353966
81.043056,161.034579
81.185556,160.957152
81.323889,160.937795
81.546111,161.0249
81.696111,161.073292
81.850833,161.082971
81.980833,161.044257
82.1175,161.015222
82.255556,160.96683
82.470556,161.005544
82.634722,161.0249
82.787778,161.005544
83.053056,160.870046
83.150278,160.734549
83.299167,160.463554
83.518056,160.047383
83.669444,159.921564
83.86,160.057062
83.999167,160.357092
84.135,160.715192
84.336944,161.131363
84.582778,161.063614
84.715556,160.995865
84.868056,160.928117
85.029444,160.870046
85.194444,160.821654
85.365,160.811976
85.578056,160.792619
85.7325,160.782941
86.072222,160.763584
86.209167,160.72487
86.341111,160.676478
86.561944,160.502267
86.731111,160.337735
86.864444,160.192559
86.988889,160.095775
87.133056,160.095775
87.260556,160.231273
87.422778,160.473232
87.655,160.657122
87.820833,160.734549
87.965833,160.782941
88.265556,160.753906
88.519444,160.570016
88.654722,160.318378
88.95,159.757032
89.103056,159.70864
89.318333,159.960278
89.526389,160.521624
89.751111,160.899081
90.076389,160.802297
90.200556,160.782941
90.350556,160.744227
90.585833,160.647443
90.841389,160.560338
91.053889,160.550659
91.335556,160.657122
91.675,160.579695
91.778611,160.482911
91.921111,160.240951
92.048333,159.998991
92.314444,159.718318
92.525278,159.795745
92.676389,160.076418
92.824444,160.3087
92.983056,160.434519
93.135833,160.444197
93.269722,160.376448
93.479167,160.376448
93.624167,160.328057
93.776389,160.260308
93.939722,160.202237
94.098056,160.115132
94.535278,159.921564
94.694444,159.631213
94.835,159.718318
94.989167,159.882851
95.264722,160.095775
95.493333,160.134489
95.658056,160.12481
95.809722,160.095775
95.978056,160.057062
96.127778,160.037705
96.295833,160.095775
96.557778,160.134489
96.842778,160.028027
96.9925,159.815102
97.175556,159.515072
97.315556,159.282791
97.661667,159.292469
97.828333,159.640891
98.020833,160.095775
98.166389,160.415162
98.544167,160.453876
98.693889,160.386127
98.841389,160.36677
99.035833,160.347413
99.184722,160.337735
99.341944,160.3087
99.594444,160.182881
99.765278,159.998991
100.068611,159.805424
100.216111,159.873172
100.364444,160.057062
100.579444,160.211916
100.857222,160.289343
101.0475,160.3087
101.207778,160.279665
101.549722,160.163524
101.684444,160.144167
101.965556,160.182881
102.158333,160.211916
102.290278,160.211916
102.508611,160.182881
102.761667,159.776388
102.939444,159.437645
103.096944,159.205364
103.346111,159.292469
103.529167,159.70864
103.673333,160.086097
103.800833,160.415162
103.965556,160.599051
104.122222,160.560338
104.293056,160.463554
104.521667,160.347413
104.663056,160.269986
104.853611,160.231273
104.99,160.173202
105.134722,160.086097
105.281389,160.018348
105.609722,159.921564
105.695833,159.902207
105.850278,159.911886
105.9975,159.960278
106.135278,159.979635
106.274444,159.960278
106.478611,159.921564
106.654444,159.786067
106.814444,159.650569
106.959444,159.52475
107.283889,159.515072
107.508333,159.698961
107.652778,159.863494
107.83,159.969956
107.981111,159.998991
108.245556,159.795745
108.386111,159.52475
108.623889,159.050509
108.788056,158.905334
108.936667,158.934369
109.113611,159.234399
109.295556,159.621534
109.626389,160.240951
109.833889,160.163524
109.998333,160.086097
110.153611,159.979635
110.288333,159.892529
110.593333,159.82478
110.76,159.76671
110.921944,159.70864
111.146111,159.602177
111.273889,159.611856
111.499722,159.631213
111.668333,159.631213
111.804444,159.602177
111.966944,159.515072
112.161944,159.302147
112.338611,159.060188
112.679722,158.973082
112.995,159.698961
113.163333,159.950599
113.356111,160.018348
113.569722,159.998991
113.725278,159.931243
113.904167,159.863494
114.066111,159.689283
114.177778,159.505394
114.558611,159.098901
114.714722,159.215042
114.873056,159.573142
115.034167,159.873172
115.365833,159.940921
115.595556,159.882851
115.736389,159.863494
115.940833,159.815102
116.200556,159.776388
116.628056,159.650569
116.753611,159.679605
116.911944,159.737675
117.013056,159.747353
117.159722,159.757032
117.302778,159.737675
117.511667,159.602177
117.556944,159.602177
117.695278,159.427967
117.863889,159.156972
118.007222,159.060188
118.311944,159.52475
118.515,159.52475
118.559167,160.115132
118.7425,160.405484
118.917222,160.3087
119.082222,160.221594
119.361389,160.047383
119.588056,159.931243
119.731667,159.834459
119.9075,159.602177
120.253611,159.331183
120.477222,159.515072
120.642222,159.795745
120.863056,159.911886
121.016111,159.931243
121.156944,159.950599
121.312778,159.911886
121.670833,159.815102
121.8775,159.698961
122.003889,159.660248
122.165278,159.718318
122.325,159.757032
122.546111,159.844137
122.716111,159.834459
122.880556,159.679605
123.046389,159.369896
123.223056,159.127937
123.572778,159.40861
123.723611,159.786067
123.870278,160.134489
124.074722,160.347413
124.3425,160.211916
124.605556,160.12481
124.874167,160.057062
125.085556,160.028027
125.271944,159.989313
125.411111,159.853816
125.653611,159.602177
125.921111,159.544107
126.264167,159.931243
126.495278,160.057062
126.6575,160.086097
126.796389,160.076418
126.961667,159.998991
127.135833,159.921564
127.514167,159.834459
127.662778,159.921564
127.814722,159.979635
128.004444,160.00867
128.313333,159.834459
128.534722,159.447323
128.733889,159.089223
129.001667,159.002117
129.151389,159.263434
129.323056,159.727997
129.54,160.163524
129.710833,160.250629
129.8825,160.115132
130.046944,160.037705
130.328611,159.921564
130.565556,159.882851
130.726111,159.786067
130.856389,159.70864
131.021111,159.563464
131.176667,159.476358
131.340556,159.505394
131.559167,159.669926
131.74,159.76671
132.036111,159.747353
132.199722,159.70864
132.371944,159.650569
132.579722,159.505394
132.742778,159.447323
132.930833,159.379575
133.099444,159.46668
133.233611,159.553786
133.475833,159.640891
133.633333,159.669926
133.771389,159.553786
133.935833,159.263434
134.265556,158.682731
134.491944,158.750479
134.634722,159.002117
134.796944,159.447323
134.982778,159.863494
135.136667,160.076418
135.333333,159.969956
135.532778,159.82478
135.818889,159.727997
135.980833,159.698961
136.154167,159.718318
136.325556,159.660248
136.575,159.515072
136.713889,159.476358
136.875,159.447323
137.081111,159.437645
137.229722,159.495715
137.361944,159.52475
137.613056,159.611856
137.746667,159.631213
137.905278,159.534429
138.070278,159.282791
138.364722,158.963404
138.574722,159.156972
138.7425,159.52475
138.9025,159.82478
139.088611,159.892529
139.385556,159.76671
139.615556,159.621534
139.826111,159.379575
139.982778,159.176328
140.25,159.156972
140.472222,159.515072
140.616667,159.737675
140.765833,159.834459
140.916667,159.844137
141.077778,159.805424
141.205556,159.805424
141.389167,159.805424
141.612778,159.776388
141.91,159.573142
142.06,159.437645
142.196389,159.369896
142.352778,159.340861
142.559444,159.360218
142.820833,159.495715
142.936667,159.515072
143.081667,159.486037
143.196111,159.447323
143.363889,159.350539
143.604444,158.992439
143.770556,158.731123
143.911667,158.585947
144.021944,158.56659
144.264167,158.953726
144.686389,159.650569
144.833611,159.592499
145.006111,159.553786
145.169722,159.505394
145.306111,159.46668
145.706111,159.398931
145.868333,159.273112
146.048889,159.176328
146.210556,159.176328
146.344444,159.234399
146.581111,159.398931
146.785556,159.447323
146.8825,159.457002
147.031944,159.46668
147.209167,159.427967
147.393889,159.369896
147.635556,159.311826
147.936667,159.031153
148.118056,158.982761
148.3425,159.098901
148.608611,159.457002
148.886944,159.698961
149.03,159.660248
149.183889,159.592499
149.363056,159.340861
149.642778,159.011796
149.927778,158.934369
150.082778,159.16665
150.252222,159.544107
150.509167,159.786067
150.667778,159.757032
150.836111,159.718318
151.012222,159.640891
151.279167,159.534429
151.676944,159.263434
151.888056,159.16665
152.055,159.16665
152.179444,159.253756
152.337222,159.389253
152.68,159.553786
152.855556,159.534429
153.041944,159.476358
153.228889,159.389253
153.580556,158.876298
153.743611,158.760158
153.918056,158.789193
154.073611,158.963404
154.226667,159.253756
154.374167,159.437645
154.605278,159.447323
154.777222,159.350539
154.948611,159.244077
155.081111,159.127937
155.258056,158.92469
155.416389,158.702087
155.664167,158.547233
155.972778,158.915012
156.146667,159.253756
156.283611,159.360218
156.589722,159.302147
156.746389,159.263434
156.937778,159.205364
157.119444,159.147293
157.270556,159.060188
157.506944,158.837585
157.682778,158.740801
157.841667,158.721444
157.993056,158.750479
158.183333,158.895655
158.318056,159.011796
158.675833,159.098901
158.858056,159.050509
159.048889,158.915012
159.1975,158.721444
159.574167,158.402057
159.734167,158.50852
160.064722,159.10858
160.235278,159.205364
160.423889,159.195685
160.693889,159.137615
160.996111,159.031153
161.137222,158.905334
161.310833,158.711766
161.738056,158.614982
161.918611,158.856942
162.074722,159.098901
162.24,159.147293
162.491111,159.16665
162.657222,159.10858
162.835833,159.050509
163.009444,158.963404
163.119722,158.86662
163.6075,158.421414
163.768889,158.431093
164.0225,158.682731
164.218889,158.760158
164.514444,158.750479
164.659722,158.682731
164.846111,158.56659
164.999444,158.382701
165.179722,158.160098
165.3425,157.937495
165.571944,157.831033
165.711389,157.90846
165.994444,158.402057
166.159167,158.56659
166.313056,158.547233
166.553056,158.479485
166.668889,158.421414
166.816667,158.353666
167.083611,158.227847
167.275833,158.111706
167.411667,158.043957
167.656111,157.985887
167.821944,158.063314
168.133333,158.353666
168.309444,158.353666
168.514444,158.353666
168.716667,158.32463
168.945278,158.237525
169.221944,158.034279
169.475833,157.6665
169.653611,157.598751
169.798056,157.656822
169.982778,157.918138
170.179444,158.276238
170.385278,158.56659
170.648889,158.537555
170.791667,158.518198
170.966944,158.518198
171.128889,158.498841
171.273611,158.431093
171.430278,158.373022
171.670556,158.498841
171.816667,158.653696
171.993889,159.021474
172.310833,159.457002
172.515556,159.398931
172.693889,159.360218
172.877778,159.195685
173.015556,159.050509
173.181389,158.885977
173.341944,158.779515
173.575556,158.915012
173.772778,159.205364
173.949444,159.292469
174.251389,159.244077
174.610556,159.147293
174.737778,158.634339
175.071944,156.514772
175.362222,155.285617
175.518611,154.898481
175.724167,154.637165
175.918611,154.714592
176.183611,154.530703
176.623889,152.527276
176.771667,151.772362
176.964444,151.06584
177.130833,150.591599
177.299167,150.339961
177.533889,150.572242
177.686389,150.833559
177.843056,150.804524
177.997222,150.485137
178.285,149.633439
178.511667,149.159198
178.643889,149.043057
178.813611,149.014022
178.973333,149.236625
179.131667,149.50762
179.318333,149.710866
179.538611,149.556012
179.741667,149.304374
179.901389,149.149519
180.04,149.091449
180.219167,149.091449
180.560833,149.120484
180.714444,149.043057
180.842778,148.984987
181.115278,148.791419
181.272222,148.781741
181.598056,148.762384
181.659444,148.743027
181.840556,148.6656
182.189444,148.239751
182.391111,148.172002
182.621667,148.355892
