time,pressure
0.0,92.229751
0.083333,91.387731
0.166667,90.410214
0.25,89.742405
0.333056,89.181059
0.416389,88.784245
0.499722,88.387431
0.583056,88.019653
0.666389,87.584125
0.749722,87.245382
0.833056,86.906638
0.916389,86.577573
0.999722,86.248508
1.083056,85.842015
1.166111,85.532307
1.249444,85.222599
1.332778,84.883855
1.416111,84.583825
1.499444,84.19669
1.582778,83.89666
1.666111,83.59663
1.749444,83.286921
1.832778,82.899786
1.916111,82.590077
1.999444,82.280369
2.0825,81.980339
2.165833,81.641595
2.249167,81.25446
2.3325,80.944751
2.415833,80.615686
2.499167,80.335013
2.5825,79.976913
2.665833,79.589777
2.749167,79.289747
2.8325,78.951004
2.915556,78.650974
2.998889,78.273517
3.082222,77.963808
3.165556,77.634743
3.248889,77.315356
3.332222,77.005648
3.415556,76.579799
3.498889,76.289447
3.582222,75.960382
3.665556,75.631317
3.748611,75.244181
3.831944,74.924795
3.915278,74.605408
3.998611,74.295699
4.081944,73.985991
4.165278,73.598856
4.248611,73.289147
4.331944,72.989117
4.415278,72.689087
4.498611,72.398736
4.581667,72.040635
4.665,71.750284
4.748333,71.459932
4.831667,71.16958
4.915,70.821158
4.998333,70.530807
5.081667,70.240455
5.165,69.979139
5.248333,69.66943
5.331667,69.330687
5.415,69.050014
5.498056,68.76934
5.581389,68.488667
5.664722,68.140245
5.748056,67.86925
5.831389,67.588577
5.914722,67.327261
5.998056,67.056266
6.081389,66.707844
6.164722,66.456206
6.248056,66.185211
6.331111,65.923895
6.414444,65.614186
6.497778,65.333513
6.581111,65.072196
6.664444,64.81088
6.747778,64.559242
6.831111,64.249534
6.914444,64.007574
6.997778,63.775293
7.081111,63.543011
7.164167,63.25266
7.2475,63.020378
7.330833,62.797775
7.414167,62.565494
7.4975,62.236429
7.580833,62.081575
7.664167,61.936399
7.7475,61.781545
7.830833,61.607334
7.914167,61.375053
7.997222,61.191163
8.080556,61.026631
8.163889,60.85242
8.247222,60.678209
8.330556,60.465284
8.413889,60.291073
8.497222,60.145897
8.580556,59.971686
8.663889,59.76844
8.747222,59.603908
8.830556,59.449054
8.913611,59.303878
8.996944,59.158702
9.080278,58.974813
9.163611,58.829637
9.246944,58.694139
9.330278,58.56832
9.413611,58.432823
9.496944,58.258612
9.580278,58.15215
9.663611,58.036009
9.746667,57.919868
9.83,57.774693
9.913333,57.639195
9.996667,57.532733
10.08,57.426271
10.163333,57.31013
10.246667,57.184311
10.33,57.077849
10.413333,56.961708
10.496667,56.864924
10.579722,56.739105
10.663056,56.642321
10.746389,56.545537
10.829722,56.448753
10.913056,56.35197
10.996389,56.235829
11.079722,56.139045
11.163056,56.061618
11.246389,55.964834
11.329722,55.877729
11.412778,55.771266
11.496111,55.674483
11.579444,55.597055
11.662778,55.50995
11.746111,55.403488
11.829444,55.326061
11.912778,55.248633
11.996111,55.171206
12.079444,55.093779
12.162778,55.006674
12.245833,54.929247
12.329167,54.85182
12.4125,54.793749
12.495833,54.696965
12.579167,54.60986
12.6625,54.542111
12.745833,54.474362
12.829167,54.406614
12.9125,54.30983
12.995833,54.25176
13.079167,54.184011
13.162222,54.116262
13.245556,54.048513
13.328889,54.000122
13.412222,53.932373
13.495556,53.874302
13.578889,53.825911
13.662222,53.748483
13.745556,53.690413
13.828889,53.6517
13.912222,53.603308
13.995278,53.545237
14.078611,53.477489
14.161944,53.429097
14.245278,53.380705
14.328611,53.341991
14.411944,53.283921
14.495278,53.254886
14.578611,53.216172
14.661944,53.148423
14.745278,53.119388
14.828333,53.061318
14.911667,53.012926
14.995,52.983891
15.078333,52.945177
15.161667,52.906464
15.245,52.848393
15.328333,52.80968
15.411667,52.790323
15.495,52.75161
15.578333,52.703218
15.661389,52.674182
15.744722,52.654826
15.828056,52.625791
15.911389,52.587077
15.994722,52.538685
16.078056,52.519328
16.161389,52.490293
16.244722,52.45158
16.328056,52.422544
16.411389,52.374152
16.494444,52.335439
16.577778,52.306404
16.661111,52.258012
16.744444,52.228977
16.827778,52.180585
16.911111,52.15155
16.994444,52.112836
17.077778,52.074122
17.161111,52.035409
17.244444,52.006374
17.3275,51.957982
17.410833,51.938625
17.494167,51.899912
17.5775,51.880555
17.660833,51.841841
17.744167,51.812806
17.8275,51.774092
17.910833,51.745057
17.994167,51.696665
18.0775,51.66763
18.160833,51.638595
18.243889,51.599882
18.327222,51.570846
18.410556,51.541811
18.493889,51.522454
18.577222,51.503098
18.660556,51.474062
18.743889,51.445027
18.827222,51.406314
18.910556,51.386957
18.993889,51.348243
19.076944,51.319208
19.160278,51.280495
19.243611,51.25146
19.326944,51.222424
19.410278,51.203068
19.493611,51.174032
19.576944,51.144997
19.660278,51.115962
19.743611,51.086927
19.826944,51.048213
19.91,51.0095
19.993333,50.990143
20.076667,50.961108
20.16,50.932073
20.243333,50.893359
20.326667,50.864324
20.41,50.844967
20.493333,50.815932
20.576667,50.786897
20.66,50.757862
20.743056,50.719148
20.826389,50.690113
20.909722,50.670756
20.993056,50.6514
21.076389,50.632043
21.159722,50.603008
21.243056,50.583651
21.326389,50.564294
21.409722,50.554616
21.493056,50.525581
21.576111,50.515902
21.659444,50.486867
21.742778,50.448153
21.826111,50.428797
21.909444,50.419118
21.992778,50.390083
22.076111,50.370726
22.159444,50.35137
22.242778,50.332013
22.326111,50.332013
22.409167,50.312656
22.4925,50.302978
22.575833,50.293299
22.659167,50.293299
22.7425,50.273942
22.825833,50.273942
22.909167,50.254586
22.9925,50.254586
23.075833,50.235229
23.159167,50.225551
23.2425,50.225551
23.325556,50.225551
23.408889,50.225551
23.492222,50.206194
23.575556,50.206194
23.658889,50.196515
23.742222,50.186837
23.825556,50.196515
23.908889,50.196515
23.992222,50.196515
24.075556,50.196515
24.158611,50.186837
24.241944,50.186837
24.325278,50.177159
24.408611,50.177159
24.491944,50.186837
24.575278,50.157802
24.658611,50.157802
24.741944,50.157802
24.825278,50.157802
24.908611,50.157802
24.991667,50.148123
25.075,50.157802
25.158333,50.119088
25.241667,50.070696
25.325,50.002948
25.408333,49.877129
25.491667,49.606134
25.575,49.402888
25.658333,49.238355
25.741667,49.170606
25.825,49.199641
25.908056,49.248033
25.991389,49.20932
26.074722,49.248033
26.158056,49.286747
26.241389,49.131893
26.324722,49.073822
26.408056,49.044787
26.491389,49.006074
26.574722,48.880255
26.658056,48.793149
26.741111,48.706044
26.824444,48.599581
26.907778,48.522154
26.991111,48.512476
27.074444,48.493119
27.157778,48.541511
27.241111,48.599581
27.324444,48.531833
27.407778,48.473762
27.491111,48.425371
27.574167,48.347943
27.6575,48.299551
27.740833,48.260838
27.824167,48.222124
27.9075,48.183411
27.990833,48.212446
28.074167,48.231803
28.1575,48.289873
28.240833,48.347943
28.324167,48.347943
28.407222,48.241481
28.490556,48.154376
28.573889,48.06727
28.657222,47.970486
28.740556,47.854346
28.823889,47.747883
28.907222,47.660778
28.990556,47.641421
29.073889,47.689813
29.157222,47.786597
29.240556,47.82531
29.323611,47.854346
29.406944,47.873702
29.490278,47.912416
29.573611,47.844667
29.656944,47.660778
29.740278,47.515602
29.823611,47.389783
29.906944,47.370426
29.990278,47.389783
30.073611,47.486567
30.156667,47.583351
30.24,47.660778
30.323333,47.718848
30.406667,47.70917
30.49,47.689813
30.573333,47.612386
30.656667,47.46721
30.74,47.322034
30.823333,47.244607
30.906667,47.273642
30.989722,47.35107
31.073056,47.438175
31.156389,47.52528
31.239722,47.612386
31.323056,47.660778
31.406389,47.6511
31.489722,47.641421
31.573056,47.554316
31.656389,47.40914
31.739722,47.341391
31.823056,47.292999
31.906111,47.331713
31.989444,47.399461
32.072778,47.46721
32.156111,47.515602
32.239444,47.573672
32.322778,47.622064
32.406111,47.660778
32.489444,47.689813
32.572778,47.680135
32.656111,47.534959
32.739167,47.418818
32.8225,47.35107
32.905833,47.292999
32.989167,47.292999
33.0725,47.254286
33.155833,47.244607
33.239167,47.22525
33.3225,47.205894
33.405833,47.186537
33.489167,47.186537
33.572222,47.176859
33.655556,47.138145
33.738889,47.089753
33.822222,47.031683
33.905556,46.983291
33.988889,46.963934
34.072222,46.915542
34.155556,46.886507
34.238889,46.86715
34.322222,46.838115
34.405278,46.799401
34.488611,46.741331
34.571944,46.683261
34.655278,46.644547
34.738611,46.605834
34.821944,46.547763
34.905278,46.489693
34.988611,46.460658
35.071944,46.460658
35.155278,46.421944
35.238611,46.392909
35.321667,46.373552
35.405,46.315482
35.488333,46.247733
35.571667,46.199341
35.655,46.160628
35.738333,46.121914
35.821667,46.073522
35.905,46.054166
35.988333,46.034809
36.071667,46.015452
36.154722,45.947703
36.238056,45.90899
36.321389,45.860598
36.404722,45.821884
36.488056,45.792849
36.571389,45.792849
36.654722,45.831563
36.738056,45.870276
36.821389,45.899311
36.904722,45.918668
36.987778,45.918668
37.071111,45.860598
37.154444,45.715422
37.237778,45.55089
37.321111,45.42507
37.404444,45.299251
37.487778,45.173432
37.571111,45.0089
37.654444,44.931473
37.737778,44.941151
37.820833,45.028257
37.904167,45.144397
37.9875,45.173432
38.070833,45.173432
38.154167,45.154076
38.2375,45.018578
38.320833,44.921794
38.404167,44.82501
38.4875,44.757262
38.570833,44.679835
38.654167,44.670156
38.737222,44.70887
38.820556,44.776619
38.903889,44.902438
38.987222,44.989543
39.070556,45.076649
39.153889,45.144397
39.237222,45.086327
39.320556,44.999221
39.403889,44.95083
39.487222,44.863724
39.570278,44.776619
39.653611,44.699191
39.736944,44.679835
39.820278,44.737905
39.903611,44.844367
39.986944,44.970186
40.070278,45.06697
40.153611,45.183111
40.236944,45.289573
40.320278,45.405714
40.403333,45.492819
40.486667,45.512176
40.57,45.42507
40.653333,45.328287
40.736667,45.279895
40.82,45.241181
40.903333,45.25086
40.986667,45.270216
41.07,45.270216
41.153333,45.328287
41.236667,45.42507
41.319722,45.531533
41.403056,45.579925
41.486389,45.66703
41.569722,45.715422
41.653056,45.754136
41.736389,45.696065
41.819722,45.66703
41.903056,45.637995
41.986389,45.618638
42.069722,45.618638
42.152778,45.637995
42.236111,45.7251
42.319444,45.831563
42.402778,45.947703
42.486111,46.034809
42.569444,46.092879
42.652778,46.121914
42.736111,46.15095
42.819444,46.054166
42.902778,45.928347
42.985833,45.841241
43.069167,45.773492
43.1525,45.744457
43.235833,45.754136
43.319167,45.783171
43.4025,45.821884
43.485833,45.841241
43.569167,45.841241
43.6525,45.831563
43.735833,45.715422
43.819167,45.60896
43.902222,45.531533
43.985556,45.454106
44.068889,45.376679
44.152222,45.367
44.235556,45.415392
44.318889,45.473462
44.402222,45.531533
44.485556,45.570246
44.568889,45.599281
44.652222,45.637995
44.735278,45.570246
44.818611,45.318608
44.901944,45.028257
44.985278,44.844367
45.068611,44.70887
45.151944,44.728227
45.235278,44.854046
45.318611,44.989543
45.401944,45.086327
45.485278,45.06697
45.568333,44.989543
45.651667,44.883081
45.735,44.844367
45.818333,44.854046
45.901667,44.883081
45.985,44.892759
46.068333,44.912116
46.151667,44.902438
46.235,44.921794
46.318333,44.931473
46.401667,44.960508
46.484722,45.086327
46.568056,45.144397
46.651389,45.12504
46.734722,45.086327
46.818056,45.028257
46.901389,45.028257
46.984722,45.037935
47.068056,45.115362
47.151389,45.212146
47.234722,45.221824
47.317778,45.231503
47.401111,45.221824
47.484444,45.212146
47.567778,45.260538
47.651111,45.318608
47.734444,45.318608
47.817778,45.337965
47.901111,45.328287
47.984444,45.318608
48.067778,45.337965
48.150833,45.328287
48.234167,45.337965
48.3175,45.405714
48.400833,45.434749
48.484167,45.405714
48.5675,45.376679
48.650833,45.357322
48.734167,45.376679
48.8175,45.463784
48.900833,45.521854
48.984167,45.589603
49.067222,45.686387
49.150556,45.60896
49.233889,45.531533
49.317222,45.512176
49.400556,45.502498
49.483889,45.492819
49.567222,45.492819
49.650556,45.483141
49.733889,45.492819
49.817222,45.512176
49.900278,45.541211
49.983611,45.618638
50.066944,45.734779
50.150278,45.802528
50.233611,45.802528
50.316944,45.773492
50.400278,45.696065
50.483611,45.599281
50.566944,45.589603
50.650278,45.628317
50.733611,45.7251
50.816667,45.841241
50.9,45.841241
50.983333,45.792849
51.066667,45.792849
51.15,45.802528
51.233333,45.763814
51.316667,45.763814
51.4,45.860598
51.483333,45.812206
51.566667,45.870276
51.649722,45.90899
51.733056,45.821884
51.816389,45.899311
51.899722,45.831563
51.983056,45.879955
52.066389,45.928347
52.149722,45.85092
52.233056,45.899311
52.316389,45.938025
52.399722,45.802528
52.482778,45.396035
52.566111,45.173432
52.649444,44.999221
52.732778,44.912116
52.816111,44.921794
52.899444,45.028257
52.982778,45.173432
53.066111,45.134719
53.149444,44.999221
53.232778,44.912116
53.316111,44.815332
53.399167,44.728227
53.4825,44.699191
53.565833,44.728227
53.649167,44.699191
53.7325,44.670156
53.815833,44.699191
53.899167,44.776619
53.9825,44.892759
54.065833,44.960508
54.149167,44.960508
54.232222,44.902438
54.315556,44.854046
54.398889,44.82501
54.482222,44.795975
54.565556,44.815332
54.648889,44.834689
54.732222,44.854046
54.815556,44.902438
54.898889,44.941151
54.982222,44.999221
55.065278,45.086327
55.148611,45.163754
55.231944,45.173432
55.315278,45.192789
55.398611,45.212146
55.481944,45.212146
55.565278,45.25086
55.648611,45.328287
55.731944,45.42507
55.815278,45.521854
55.898611,45.541211
55.981667,45.55089
56.065,45.560568
56.148333,45.570246
56.231667,45.589603
56.315,45.637995
56.398333,45.657352
56.481667,45.686387
56.565,45.705744
56.648333,45.7251
56.731667,45.734779
56.814722,45.754136
56.898056,45.792849
56.981389,45.821884
57.064722,45.879955
57.148056,45.928347
57.231389,45.928347
57.314722,45.90899
57.398056,45.90899
57.481389,45.976739
57.564722,46.015452
57.647778,46.034809
57.731111,45.986417
57.814444,45.947703
57.897778,45.918668
57.981111,45.860598
58.064444,45.773492
58.147778,45.705744
58.231111,45.66703
58.314444,45.66703
58.397778,45.657352
58.480833,45.60896
58.564167,45.60896
58.6475,45.618638
58.730833,45.628317
58.814167,45.579925
58.8975,45.589603
58.980833,45.521854
59.064167,45.434749
59.1475,45.318608
59.230833,45.279895
59.314167,45.241181
59.397222,45.299251
59.480556,45.405714
59.563889,45.473462
59.647222,45.560568
59.730556,45.637995
59.813889,45.705744
59.897222,45.7251
59.980556,45.734779
60.063889,45.7251
60.147222,45.618638
60.230278,45.531533
60.313611,45.473462
60.396944,45.483141
60.480278,45.531533
60.563611,45.579925
60.646944,45.657352
60.730278,45.705744
60.813611,45.763814
60.896944,45.589603
60.980278,45.173432
61.063333,44.902438
61.146667,44.76694
61.23,44.689513
61.313333,44.854046
61.396667,44.979865
61.48,44.95083
61.563333,45.037935
61.646667,45.144397
61.73,45.221824
61.813333,45.328287
61.896389,45.42507
61.979722,45.463784
62.063056,45.328287
62.146389,45.154076
62.229722,45.057292
62.313056,44.979865
62.396389,44.941151
62.479722,44.95083
62.563056,45.028257
62.646389,45.144397
62.729444,45.212146
62.812778,45.154076
62.896111,44.999221
62.979444,44.844367
63.062778,44.699191
63.146111,44.573372
63.229444,44.505624
63.312778,44.486267
63.396111,44.505624
63.479444,44.612086
63.562778,44.689513
63.645833,44.795975
63.729167,44.844367
63.8125,44.912116
63.895833,44.931473
63.979167,44.999221
64.0625,45.12504
64.145833,45.163754
64.229167,45.134719
64.3125,45.096005
64.395833,45.076649
64.478889,45.057292
64.562222,45.076649
64.645556,45.173432
64.728889,45.289573
64.812222,45.318608
64.895556,45.30893
64.978889,45.367
65.062222,45.405714
65.145556,45.444427
65.228889,45.444427
65.311944,45.434749
65.395278,45.444427
65.478611,45.463784
65.561944,45.473462
65.645278,45.531533
65.728611,45.618638
65.811944,45.783171
65.895278,45.754136
65.978611,45.734779
66.061944,45.754136
66.145,45.783171
66.228333,45.899311
66.311667,45.918668
66.395,45.90899
66.478333,45.918668
66.561667,45.947703
66.645,45.938025
66.728333,45.947703
66.811667,45.976739
66.895,45.976739
66.978056,45.996095
67.061389,45.986417
67.144722,45.986417
67.228056,45.947703
67.311389,45.938025
67.394722,45.821884
67.478056,45.7251
67.561389,45.66703
67.644722,45.60896
67.728056,45.570246
67.811111,45.541211
67.894444,45.473462
67.977778,45.434749
68.061111,45.405714
68.144444,45.376679
68.227778,45.396035
68.311111,45.415392
68.394444,45.463784
68.477778,45.502498
68.561111,45.444427
68.644444,45.376679
68.7275,45.318608
68.810833,45.25086
68.894167,45.173432
68.9775,45.154076
69.060833,45.096005
69.144167,45.105684
69.2275,45.144397
69.310833,45.163754
69.394167,45.183111
69.4775,45.260538
69.560556,45.376679
69.643889,45.444427
69.727222,45.473462
69.810556,45.521854
69.893889,45.579925
69.977222,45.628317
70.060556,45.637995
70.143889,45.60896
70.227222,45.705744
70.310556,45.686387
70.393611,45.637995
70.476944,45.744457
70.560278,45.802528
70.643611,45.860598
70.726944,45.705744
70.810278,45.637995
70.893611,45.628317
70.976944,45.60896
71.060278,45.560568
71.143611,45.202468
71.226667,44.999221
71.31,44.902438
71.393333,44.863724
71.476667,44.931473
71.56,45.037935
71.643333,45.144397
71.726667,45.154076
71.81,45.105684
71.893333,45.028257
71.976667,44.999221
72.06,44.95083
72.143056,45.0089
72.226389,44.921794
72.309722,44.854046
72.393056,44.786297
72.476389,44.699191
72.559722,44.70887
72.643056,44.757262
72.726389,44.834689
72.809722,44.815332
72.893056,44.757262
72.976111,44.670156
73.059444,44.592729
73.142778,44.515302
73.226111,44.486267
73.309444,44.486267
73.392778,44.495945
73.476111,44.563694
73.559444,44.679835
73.642778,44.815332
73.726111,44.82501
73.809167,44.892759
73.8925,44.979865
73.975833,44.902438
74.059167,44.844367
74.1425,44.834689
74.225833,44.902438
74.309167,44.999221
74.3925,45.076649
74.475833,45.173432
74.559167,45.25086
74.6425,45.386357
74.725556,45.531533
74.808889,45.618638
74.892222,45.637995
74.975556,45.686387
75.058889,45.7251
75.142222,45.773492
75.225556,45.821884
75.308889,45.860598
75.392222,45.90899
75.475556,46.063844
75.558611,46.170306
75.641944,46.344517
75.725278,46.26709
75.808611,46.170306
75.891944,46.20902
75.975278,46.228377
76.058611,46.160628
76.141944,46.063844
76.225278,45.90899
76.308611,45.792849
76.391667,45.705744
76.475,45.657352
76.558333,45.657352
76.641667,45.686387
76.725,45.686387
76.808333,45.744457
76.891667,45.705744
76.975,45.560568
77.058333,45.473462
77.141667,45.396035
77.225,45.337965
77.308056,45.270216
77.391389,45.183111
77.474722,45.096005
77.558056,45.076649
77.641389,45.076649
77.724722,45.096005
77.808056,45.096005
77.891389,45.105684
77.974722,45.12504
78.058056,45.037935
78.141111,44.999221
78.224444,44.970186
78.307778,44.921794
78.391111,44.863724
78.474444,44.854046
78.557778,44.902438
78.641111,44.999221
78.724444,45.076649
78.807778,45.221824
78.891111,45.221824
78.974167,45.12504
79.0575,45.076649
79.140833,45.202468
79.224167,45.183111
79.3075,45.037935
79.390833,44.95083
79.474167,44.873402
79.5575,44.82501
79.640833,44.82501
79.724167,44.854046
79.807222,44.854046
79.890556,44.883081
79.973889,44.844367
80.057222,44.931473
80.140556,44.979865
80.223889,45.018578
80.307222,45.037935
80.390556,45.105684
80.473889,45.134719
80.557222,45.12504
80.640556,45.173432
80.723611,45.221824
80.806944,45.173432
80.890278,45.115362
80.973611,45.105684
81.056944,45.086327
81.140278,45.105684
81.223611,45.105684
81.306944,45.154076
81.390278,45.202468
81.473611,45.299251
81.556667,45.357322
81.64,45.367
81.723333,45.367
81.806667,45.42507
81.89,45.434749
81.973333,45.492819
82.056667,45.483141
82.14,45.444427
82.223333,45.415392
82.306667,45.376679
82.389722,45.434749
82.473056,45.473462
82.556389,45.396035
82.639722,45.357322
82.723056,45.299251
82.806389,45.405714
82.889722,45.405714
82.973056,45.415392
83.056389,45.434749
83.139722,45.473462
83.222778,45.55089
83.306111,45.579925
83.389444,45.637995
83.472778,45.754136
83.556111,45.773492
83.639444,45.696065
83.722778,45.696065
83.806111,45.66703
83.889444,45.60896
83.972778,45.531533
84.055833,45.483141
84.139167,45.444427
84.2225,45.502498
84.305833,45.570246
84.389167,45.7251
84.4725,45.802528
84.555833,45.841241
84.639167,45.870276
84.7225,45.860598
84.805833,45.85092
84.888889,45.812206
84.972222,45.831563
85.055556,45.734779
85.138889,45.637995
85.222222,45.570246
85.305556,45.560568
85.388889,45.560568
85.472222,45.579925
