time,pressure
0.0,27.800327
2.0,23.348268
4.0,20.638321
6.0,18.412291
8.0,16.283046
10.0,13.960234
12.0,12.508476
14.0,11.347069
16.0,10.37923
18.0,9.604959
20.0,8.927472
22.0,8.540337
24.0,8.153201
26.0,7.862849
28.0,7.766066
30.0,7.766066
32.0,7.862849
34.0,7.959633
36.0,7.959633
38.0,8.056417
40.0,8.249985
42.0,8.443553
44.0,8.540337
46.0,8.443553
48.0,8.443553
50.0,8.540337
52.0,8.63712
54.0,8.63712
56.0,8.63712
58.0,8.63712
60.0,8.733904
62.0,8.733904
64.0,8.63712
66.0,8.63712
68.0,8.63712
70.0,8.63712
72.0,8.63712
74.0,8.63712
76.0,8.540337
78.0,8.63712
80.0,8.63712
82.0,8.63712
84.0,8.540337
86.0,8.540337
88.0,8.443553
90.0,8.443553
92.0,8.443553
94.0,8.346769
96.0,8.346769
98.0,8.249985
100.0,8.249985
102.0,8.249985
104.0,8.249985
106.0,8.249985
108.0,8.249985
110.0,8.249985
112.0,8.249985
114.0,8.249985
116.0,8.249985
118.0,8.249985
120.0,8.249985
122.0,8.249985
124.0,8.249985
126.0,8.249985
128.0,8.153201
130.0,8.153201
132.0,8.153201
134.0,8.056417
136.0,8.056417
138.0,8.056417
140.0,8.056417
142.0,8.056417
144.0,8.056417
146.0,8.056417
148.0,8.056417
150.0,8.056417
152.0,8.056417
154.0,8.056417
156.0,7.959633
158.0,8.056417
160.0,7.959633
162.0,7.959633
164.0,7.959633
166.0,7.959633
168.0,7.959633
170.0,7.959633
172.0,7.862849
174.0,7.862849
176.0,7.862849
178.0,7.862849
180.0,7.862849
182.0,7.862849
184.0,7.862849
186.0,7.862849
188.0,7.862849
190.0,7.862849
192.0,7.862849
194.0,7.862849
196.0,7.862849
198.0,7.862849
200.0,7.862849
202.0,7.862849
204.0,7.862849
206.0,7.862849
208.0,7.862849
210.0,7.766066
212.0,7.862849
214.0,7.766066
216.0,7.862849
218.0,7.766066
220.0,7.766066
222.0,7.766066
224.0,7.766066
226.0,7.766066
228.0,7.766066
230.0,7.766066
232.0,7.766066
234.0,7.766066
236.0,7.766066
238.0,7.766066
240.0,7.766066
242.0,7.766066
244.0,7.766066
246.0,7.766066
248.0,7.766066
250.0,7.766066
252.0,7.766066
254.0,7.669282
256.0,7.766066
258.0,7.669282
260.0,7.669282
262.0,7.669282
264.0,7.669282
266.0,7.669282
268.0,7.669282
270.0,7.669282
272.0,7.669282
274.0,7.669282
276.0,7.669282
278.0,7.669282
280.0,7.669282
282.0,7.669282
284.0,7.669282
286.0,7.669282
288.0,7.669282
290.0,7.669282
292.0,7.669282
294.0,7.669282
296.0,7.669282
298.0,7.669282
300.0,7.669282
302.0,7.669282
304.0,7.669282
306.0,7.669282
308.0,7.669282
310.0,7.669282
312.0,7.669282
314.0,7.669282
316.0,7.669282
318.0,7.669282
320.0,7.669282
322.0,7.669282
324.0,7.669282
326.0,7.669282
328.0,7.669282
330.0,7.669282
332.0,7.669282
334.0,7.766066
336.0,7.766066
338.0,7.766066
340.0,7.766066
342.0,7.766066
344.0,7.766066
346.0,7.766066
348.0,7.766066
350.0,7.766066
352.0,7.766066
354.0,7.766066
356.0,7.766066
358.0,7.669282
360.0,7.669282
362.0,7.669282
364.0,7.669282
366.0,7.669282
368.0,7.766066
370.0,7.669282
372.0,7.766066
374.0,7.766066
376.0,7.766066
378.0,7.766066
380.0,7.766066
382.0,7.766066
384.0,7.766066
386.0,7.766066
388.0,7.766066
390.0,7.766066
392.0,7.766066
394.0,7.766066
396.0,7.766066
398.0,7.766066
400.0,7.766066
402.0,7.766066
404.0,7.766066
406.0,7.766066
408.0,7.766066
410.0,7.766066
412.0,7.766066
414.0,7.766066
416.0,7.766066
418.0,7.766066
420.0,7.766066
422.0,7.766066
424.0,7.766066
426.0,7.862849
428.0,7.766066
430.0,7.766066
432.0,7.766066
434.0,7.766066
436.0,7.766066
438.0,7.766066
440.0,7.766066
442.0,7.862849
444.0,7.766066
446.0,7.766066
448.0,7.766066
450.0,7.862849
452.0,7.862849
454.0,7.766066
456.0,7.766066
458.0,7.862849
460.0,7.766066
462.0,7.862849
464.0,7.862849
466.0,7.862849
468.0,7.862849
470.0,7.862849
472.0,7.862849
474.0,7.862849
476.0,7.862849
478.0,7.862849
480.0,7.862849
482.0,7.766066
484.0,7.766066
486.0,7.862849
488.0,7.862849
490.0,7.862849
492.0,7.862849
494.0,7.862849
496.0,7.862849
498.0,7.862849
500.0,7.862849
502.0,7.862849
504.0,7.862849
506.0,7.862849
508.0,7.862849
510.0,7.862849
512.0,7.862849
514.0,7.862849
516.0,7.862849
518.0,7.862849
520.0,7.959633
522.0,7.959633
524.0,7.862849
526.0,7.862849
528.0,7.862849
530.0,7.862849
532.0,7.862849
534.0,7.862849
536.0,7.862849
538.0,7.862849
540.0,7.862849
542.0,7.959633
544.0,7.862849
546.0,7.959633
548.0,7.862849
550.0,7.862849
552.0,7.862849
554.0,7.862849
556.0,7.862849
558.0,7.862849
560.0,7.959633
562.0,7.959633
564.0,7.959633
568.0,7.959633
570.0,7.959633
572.0,7.959633
574.0,7.959633
576.0,7.959633
578.0,7.959633
580.0,7.959633
582.0,7.959633
584.0,7.959633
586.0,7.959633
588.0,7.959633
590.0,7.959633
592.0,7.959633
594.0,8.056417
596.0,7.959633
598.0,7.959633
600.0,7.959633
602.0,7.959633
604.0,7.959633
606.0,7.959633
608.0,7.959633
610.0,7.959633
612.0,7.959633
614.0,7.959633
616.0,7.959633
618.0,7.959633
620.0,7.959633
622.0,7.959633
624.0,7.959633
626.0,7.959633
628.0,7.959633
632.0,7.959633
634.0,7.959633
636.0,7.959633
638.0,7.959633
640.0,7.959633
642.0,7.959633
644.0,7.959633
646.0,7.959633
648.0,7.959633
650.0,7.959633
652.0,7.959633
654.0,7.959633
656.0,7.959633
658.0,7.959633
660.0,7.959633
662.0,7.959633
664.0,7.959633
666.0,7.959633
668.0,7.959633
670.0,7.959633
672.0,7.959633
674.0,7.959633
676.0,7.959633
680.0,7.959633
682.0,7.959633
684.0,7.959633
686.0,7.959633
688.0,7.959633
690.0,7.959633
692.0,7.959633
694.0,7.959633
696.0,7.959633
698.0,7.959633
700.0,7.959633
702.0,7.959633
704.0,7.959633
706.0,7.959633
708.0,7.959633
710.0,7.959633
712.0,7.959633
716.0,7.959633
718.0,7.959633
720.0,7.862849
722.0,7.959633
724.0,7.959633
726.0,7.959633
728.0,7.959633
730.0,7.959633
732.0,7.959633
734.0,7.959633
736.0,7.959633
738.0,7.959633
740.0,7.959633
742.0,7.959633
744.0,7.959633
746.0,7.959633
748.0,8.056417
750.0,7.959633
752.0,8.056417
754.0,7.959633
756.0,7.959633
758.0,8.056417
760.0,8.056417
764.0,7.959633
766.0,7.959633
768.0,7.959633
770.0,7.959633
776.0,8.056417
778.0,8.056417
780.0,7.959633
782.0,8.056417
784.0,7.959633
786.0,8.056417
788.0,8.056417
792.0,7.959633
794.0,7.959633
798.0,7.959633
800.0,7.959633
804.0,7.959633
806.0,7.959633
808.0,7.959633
810.0,7.959633
812.0,7.959633
814.0,8.056417
818.0,7.959633
820.0,7.959633
822.0,7.959633
824.0,8.056417
826.0,8.056417
828.0,8.056417
830.0,8.056417
832.0,8.056417
834.0,8.056417
836.0,8.056417
838.0,8.056417
840.0,8.056417
842.0,8.056417
844.0,7.959633
846.0,7.862849
848.0,7.959633
850.0,8.056417
852.0,8.056417
854.0,8.056417
856.0,8.056417
858.0,8.153201
860.0,8.056417
862.0,8.056417
864.0,8.056417
866.0,8.056417
868.0,8.056417
870.0,8.056417
872.0,8.153201
874.0,8.056417
876.0,8.153201
878.0,8.153201
880.0,8.153201
882.0,8.153201
884.0,8.153201
886.0,8.153201
888.0,8.056417
890.0,8.153201
892.0,8.153201
894.0,8.153201
896.0,8.153201
898.0,8.153201
900.0,8.153201
902.0,8.153201
904.0,8.153201
906.0,8.153201
908.0,8.153201
910.0,8.056417
912.0,8.056417
914.0,8.056417
928.0,8.056417
930.0,8.056417
932.0,8.056417
934.0,7.959633
936.0,7.959633
938.0,7.959633
940.0,7.959633
942.0,7.959633
944.0,8.056417
946.0,8.056417
948.0,8.056417
950.0,8.056417
952.0,8.056417
954.0,8.056417
956.0,8.056417
958.0,7.959633
960.0,7.959633
962.0,7.959633
964.0,8.056417
966.0,8.056417
968.0,8.056417
970.0,8.056417
972.0,8.056417
974.0,8.056417
976.0,8.056417
978.0,8.056417
980.0,7.959633
982.0,8.056417
984.0,8.056417
986.0,8.056417
988.0,7.959633
990.0,8.056417
992.0,8.056417
994.0,8.056417
996.0,8.056417
998.0,8.056417
1000.0,8.056417
1002.0,8.056417
1004.0,7.959633
1006.0,7.862849
1008.0,7.959633
1010.0,8.056417
1012.0,8.056417
1014.0,8.056417
1016.0,8.056417
1018.0,8.153201
1020.0,8.153201
1022.0,8.153201
1024.0,8.056417
1026.0,8.056417
1028.0,8.056417
1030.0,8.056417
1032.0,8.056417
1034.0,8.056417
1036.0,8.153201
1038.0,8.153201
1040.0,8.153201
1044.0,8.153201
1046.0,8.153201
1048.0,8.153201
1050.0,8.153201
1052.0,8.153201
1054.0,8.153201
1056.0,8.056417
1060.0,8.153201
1062.0,8.056417
1064.0,8.153201
1066.0,8.153201
1068.0,8.153201
1070.0,8.153201
1072.0,8.153201
1074.0,8.153201
1076.0,8.153201
1078.0,8.153201
1080.0,8.153201
1082.0,8.153201
1084.0,8.153201
1086.0,8.153201
1088.0,8.153201
1090.0,8.153201
1092.0,8.153201
1094.0,8.153201
1096.0,8.153201
1098.0,8.249985
1100.0,8.249985
1102.0,8.153201
1104.0,8.153201
1106.0,8.153201
1108.0,8.153201
1110.0,8.153201
1112.0,8.153201
1114.0,8.249985
1116.0,8.249985
1118.0,8.249985
1120.0,8.249985
1122.0,8.153201
1124.0,8.249985
1126.0,8.249985
1128.0,8.153201
1130.0,8.153201
1132.0,8.153201
1134.0,8.153201
1136.0,8.249985
1138.0,8.249985
1140.0,8.249985
1142.0,8.249985
1144.0,8.249985
1146.0,8.249985
1148.0,8.249985
1150.0,8.153201
1152.0,8.153201
1154.0,8.153201
1156.0,8.249985
1158.0,8.249985
1160.0,8.249985
1162.0,8.249985
1166.0,8.249985
1168.0,8.249985
1170.0,8.249985
1172.0,8.249985
1174.0,8.153201
1176.0,8.153201
1178.0,8.249985
1180.0,8.249985
1182.0,8.249985
1184.0,8.249985
1186.0,8.249985
1188.0,8.249985
1190.0,8.249985
1192.0,8.249985
1194.0,8.249985
1196.0,8.249985
1198.0,8.249985
1200.0,8.249985
1202.0,8.249985
1204.0,8.249985
1206.0,8.249985
1208.0,8.249985
1210.0,8.249985
1212.0,8.249985
1214.0,8.249985
1216.0,8.249985
1218.0,8.249985
1220.0,8.153201
1222.0,8.153201
1224.0,8.153201
1226.0,8.153201
1228.0,8.153201
1230.0,8.249985
1232.0,8.249985
1234.0,8.249985
1236.0,8.249985
1238.0,8.249985
1242.0,8.249985
1244.0,8.249985
1246.0,8.249985
1248.0,8.249985
1250.0,8.249985
1252.0,8.249985
1254.0,8.249985
1256.0,8.346769
1258.0,8.249985
1260.0,8.249985
1262.0,8.346769
1264.0,8.346769
1266.0,8.346769
1274.0,8.153201
1276.0,8.153201
1278.0,8.153201
1280.0,8.153201
1282.0,8.153201
1284.0,8.153201
1286.0,8.153201
1288.0,8.153201
1290.0,8.153201
1292.0,8.153201
1294.0,8.153201
1296.0,8.153201
1298.0,8.056417
1300.0,8.153201
1302.0,8.153201
1304.0,8.153201
1306.0,8.153201
1308.0,8.153201
1310.0,8.153201
1312.0,8.153201
1314.0,8.153201
1316.0,8.153201
1318.0,8.153201
1320.0,8.153201
1322.0,8.153201
1324.0,8.056417
1326.0,8.153201
1328.0,8.153201
1330.0,8.153201
1332.0,8.153201
1334.0,8.153201
1336.0,8.153201
1338.0,8.153201
1340.0,8.153201
1342.0,8.153201
1344.0,8.153201
1346.0,8.153201
1348.0,8.153201
1350.0,8.153201
1352.0,8.249985
1354.0,8.153201
1356.0,8.153201
1358.0,8.153201
1360.0,8.153201
1362.0,8.153201
1364.0,8.153201
1366.0,8.153201
1368.0,8.153201
1380.0,8.153201
1382.0,8.153201
1384.0,8.153201
1386.0,8.153201
1388.0,8.153201
1390.0,8.056417
1392.0,7.959633
1394.0,8.056417
1396.0,8.153201
1398.0,7.862849
1424.0,8.153201
1426.0,8.443553
1428.0,8.443553
1430.0,8.346769
1432.0,8.346769
1434.0,8.346769
1436.0,8.056417
1438.0,8.153201
1440.0,8.249985
1442.0,8.346769
1444.0,8.346769
1446.0,8.346769
1448.0,8.346769
1450.0,8.346769
1452.0,8.346769
1454.0,8.346769
1456.0,8.346769
1458.0,8.346769
1460.0,8.346769
1462.0,8.346769
1464.0,8.346769
1466.0,8.346769
1468.0,8.346769
1470.0,8.346769
1472.0,8.346769
1474.0,8.346769
1476.0,8.346769
1478.0,8.346769
1480.0,8.346769
1482.0,8.346769
1484.0,8.346769
1486.0,8.346769
1488.0,8.346769
1490.0,8.346769
1492.0,8.346769
1494.0,8.346769
1496.0,8.346769
1498.0,8.346769
1500.0,8.346769
1502.0,8.346769
1504.0,8.443553
1506.0,8.346769
1508.0,8.346769
1510.0,8.346769
1512.0,8.346769
1514.0,8.249985
1516.0,8.249985
1518.0,8.346769
1520.0,8.346769
1522.0,8.346769
1524.0,8.346769
1526.0,8.249985
1528.0,8.346769
1530.0,8.249985
1532.0,8.249985
1534.0,8.249985
1536.0,8.249985
1538.0,8.249985
1540.0,8.249985
1542.0,8.249985
1544.0,8.249985
1546.0,8.249985
1548.0,8.249985
1550.0,8.249985
1552.0,8.249985
1554.0,8.249985
1556.0,8.249985
1558.0,8.249985
1560.0,8.249985
1562.0,8.249985
1564.0,8.249985
1566.0,8.249985
1568.0,8.249985
1570.0,8.346769
1572.0,8.346769
1574.0,8.346769
1576.0,8.346769
1578.0,8.249985
1580.0,8.249985
1582.0,8.249985
1584.0,8.249985
1586.0,8.249985
1588.0,8.249985
1590.0,8.249985
1592.0,8.249985
1594.0,8.249985
1596.0,8.249985
1598.0,8.249985
1600.0,8.249985
1602.0,8.249985
1604.0,8.249985
1606.0,8.249985
1608.0,8.249985
1610.0,8.249985
1612.0,8.249985
1614.0,8.249985
1616.0,8.346769
1618.0,8.346769
1620.0,8.346769
1622.0,8.346769
1624.0,8.346769
1626.0,8.346769
1628.0,8.346769
1630.0,8.346769
1632.0,8.346769
1634.0,8.346769
1636.0,8.346769
1638.0,8.346769
1640.0,8.346769
1642.0,8.346769
1644.0,8.346769
1646.0,8.346769
1648.0,8.346769
1650.0,8.346769
1652.0,8.346769
1654.0,8.346769
1656.0,8.346769
1658.0,8.346769
1660.0,8.249985
1662.0,8.346769
1664.0,8.249985
1666.0,8.346769
1668.0,8.346769
1670.0,8.346769
1672.0,8.249985
1674.0,8.249985
1676.0,8.249985
1678.0,8.249985
1680.0,8.249985
1682.0,8.249985
1684.0,8.249985
1686.0,8.346769
1688.0,8.249985
1690.0,8.346769
1692.0,8.346769
1694.0,8.346769
1696.0,8.346769
1698.0,8.346769
1700.0,8.346769
1702.0,8.249985
1704.0,8.249985
1706.0,8.249985
1708.0,8.249985
1710.0,8.249985
1712.0,8.249985
1714.0,8.249985
1716.0,8.249985
1718.0,8.249985
1720.0,8.249985
1722.0,8.346769
1724.0,8.346769
1726.0,8.249985
1728.0,8.249985
1730.0,8.249985
1732.0,8.346769
1734.0,8.346769
1736.0,8.346769
1738.0,8.346769
1740.0,8.346769
1742.0,8.346769
1744.0,8.346769
1746.0,8.346769
1748.0,8.346769
1750.0,8.346769
1752.0,8.346769
1754.0,8.346769
1756.0,8.346769
1758.0,8.346769
1760.0,8.346769
1762.0,8.346769
1764.0,8.346769
1766.0,8.346769
1768.0,8.346769
1770.0,8.346769
1772.0,8.346769
1774.0,8.346769
1776.0,8.346769
1778.0,8.346769
1780.0,8.346769
1782.0,8.346769
1784.0,8.346769
1786.0,8.346769
1788.0,8.346769
1790.0,8.346769
1792.0,8.346769
1794.0,8.346769
1796.0,8.346769
1798.0,8.346769
1800.0,8.346769
1802.0,8.346769
1804.0,8.346769
1806.0,8.346769
1808.0,8.346769
1810.0,8.346769
1812.0,8.346769
1814.0,8.346769
1816.0,8.249985
1818.0,8.346769
1820.0,8.346769
1822.0,8.249985
1824.0,8.249985
1826.0,8.249985
1828.0,8.249985
1830.0,8.249985
1832.0,8.249985
1834.0,8.249985
1836.0,8.249985
1838.0,8.249985
1840.0,8.249985
1842.0,8.249985
1844.0,8.153201
1846.0,8.249985
1848.016667,8.249985
1850.0,8.249985
1852.0,8.249985
1854.0,8.249985
1856.0,8.249985
1858.0,8.249985
1860.0,8.249985
1862.0,8.249985
1864.0,8.249985
1866.0,8.249985
1868.0,8.249985
1870.0,8.249985
1872.0,8.153201
1874.0,8.249985
1876.0,8.249985
1878.0,8.249985
1880.0,8.249985
1882.0,8.249985
1884.0,8.249985
1886.0,8.249985
1888.0,8.249985
1890.0,8.249985
1892.0,8.249985
1894.0,8.249985
1896.0,8.249985
1898.0,8.249985
1900.0,8.249985
1902.0,8.346769
1904.0,8.346769
1906.0,8.346769
1908.0,8.346769
1910.0,8.346769
1912.0,8.346769
1914.0,8.249985
1916.0,8.249985
1918.0,8.249985
1920.0,8.249985
1922.0,8.249985
1924.0,8.249985
1926.0,8.249985
1928.0,8.249985
1930.0,8.346769
1932.0,8.346769
1934.0,8.249985
1936.0,8.249985
1938.0,8.249985
1940.0,8.153201
1942.0,8.153201
1944.0,8.249985
1946.0,8.249985
1948.0,8.153201
1950.0,8.249985
1952.0,8.249985
1954.0,8.249985
1956.0,8.249985
1958.0,8.249985
1960.0,8.249985
1962.0,8.153201
1964.0,8.153201
1966.0,8.153201
1968.0,8.153201
1970.0,8.249985
1972.0,8.249985
1974.0,8.249985
1976.0,8.249985
1978.0,8.249985
1980.0,8.249985
1982.0,8.249985
1984.0,8.249985
1986.0,8.249985
1988.0,8.249985
1990.0,8.153201
1992.0,8.153201
1994.0,8.153201
1996.0,8.153201
1998.0,8.249985
2000.0,8.249985
2002.0,8.249985
2004.0,8.249985
2006.0,8.249985
2008.0,8.249985
2010.0,8.249985
2012.0,8.249985
2014.0,8.153201
2016.0,8.153201
2018.0,8.249985
2020.0,8.346769
2022.0,8.249985
2024.0,8.346769
2026.0,8.249985
2028.0,8.249985
2030.0,8.249985
2032.0,8.249985
2034.0,8.249985
2036.0,8.249985
2038.0,8.249985
2040.0,8.249985
2042.0,8.249985
2044.0,8.249985
2046.0,8.249985
2048.0,8.249985
2050.0,8.249985
2052.0,8.249985
2054.0,8.249985
2056.0,8.249985
2058.0,8.249985
2060.0,8.249985
2062.0,8.249985
2064.0,8.249985
2066.0,8.249985
2068.0,8.249985
2070.0,8.249985
2072.0,8.249985
2074.0,8.249985
2076.0,8.346769
2078.0,8.249985
2080.0,8.249985
2082.0,8.249985
2084.0,8.249985
2122.0,8.056417
2124.0,7.959633
2126.0,8.056417
2128.0,7.959633
2130.0,8.056417
2132.0,7.959633
2134.0,7.959633
2136.0,7.959633
2138.0,7.959633
2140.0,7.959633
2142.0,7.959633
2144.0,7.959633
2150.0,8.346769
2152.0,8.056417
2154.0,8.056417
2156.0,7.959633
2158.0,7.959633
2160.0,7.959633
2162.0,7.959633
2164.0,7.959633
2166.0,7.959633
2168.0,7.959633
2170.0,7.959633
2172.0,7.959633
2174.0,7.959633
2176.0,7.959633
2178.0,7.959633
2180.0,7.959633
2182.0,7.959633
2184.0,7.959633
2186.0,7.959633
2188.0,7.959633
2190.0,7.959633
2192.0,7.959633
2194.0,7.959633
2196.0,7.959633
2198.0,7.959633
2200.0,7.959633
2202.0,7.959633
2204.0,7.959633
2206.0,7.959633
2208.0,7.959633
2210.0,7.959633
2212.0,7.959633
2214.0,7.959633
2216.0,7.959633
2218.0,7.959633
2220.0,7.959633
2222.0,8.056417
2224.0,8.056417
2226.0,8.056417
2228.0,8.056417
2230.0,8.056417
2232.0,7.959633
2234.0,7.959633
2236.0,7.959633
2238.0,7.959633
2240.0,8.056417
2242.0,8.056417
2244.0,7.959633
2246.0,7.959633
2248.0,7.959633
2250.0,7.959633
2252.0,7.959633
2254.0,7.959633
2256.0,7.959633
2258.0,7.959633
2260.0,7.959633
2262.0,7.862849
2264.0,7.959633
2266.0,7.959633
2268.0,7.959633
2270.0,7.959633
2272.0,7.959633
2274.0,7.862849
2276.0,7.862849
2278.0,7.862849
2280.0,7.862849
2282.0,7.862849
2284.0,7.862849
2286.0,7.862849
2288.0,7.862849
2290.0,7.862849
2292.0,7.862849
2294.0,7.862849
2296.0,7.862849
2298.0,7.862849
2300.0,7.862849
2302.0,7.862849
2304.0,7.862849
2306.0,7.862849
2308.0,7.959633
2310.0,7.959633
2312.0,7.959633
2314.0,7.959633
2316.0,7.959633
2318.0,7.959633
2320.0,7.959633
2322.0,7.959633
2324.0,7.959633
2326.0,7.959633
2328.0,7.959633
2330.0,7.959633
2332.0,7.959633
2334.0,7.959633
2336.0,7.862849
2338.0,7.862849
2340.0,7.862849
2342.0,7.959633
2344.0,7.862849
2346.0,7.862849
2348.0,7.862849
2350.0,7.862849
2352.0,7.862849
2354.0,7.862849
2356.0,7.862849
2358.0,7.862849
2360.0,7.862849
2362.0,7.862849
2364.0,7.862849
2366.0,7.862849
2368.0,7.862849
2370.0,7.862849
2372.0,7.862849
2374.0,7.862849
2376.0,7.862849
2378.0,7.862849
2380.0,7.862849
2382.0,7.862849
2384.0,7.862849
2386.0,7.862849
2388.0,7.862849
2390.0,7.862849
2392.0,7.959633
2394.0,7.862849
2396.0,7.862849
2398.0,7.862849
2400.0,7.862849
2402.0,7.862849
2404.0,7.862849
2406.0,7.959633
2408.0,7.959633
2410.0,7.959633
2412.0,7.959633
2414.0,7.959633
2416.0,7.959633
2418.0,7.862849
2420.0,7.862849
2422.0,7.862849
2424.0,7.862849
2426.0,7.862849
2428.0,7.862849
2430.0,7.862849
2432.0,7.959633
2434.0,7.862849
2436.0,7.862849
2438.0,7.862849
2440.0,7.862849
2442.0,7.862849
2444.0,7.862849
2446.0,7.862849
2448.0,7.862849
2450.0,7.862849
2452.0,7.862849
2454.0,7.862849
2456.0,7.862849
2458.0,7.959633
2460.0,7.862849
2462.0,7.862849
2464.0,7.862849
2466.0,7.862849
2468.0,7.862849
2470.0,7.669282
2472.0,7.669282
2474.0,7.766066
2476.0,7.862849
2478.0,7.862849
2480.0,7.862849
2482.0,7.862849
2484.0,7.862849
2486.0,7.862849
2488.0,7.862849
2490.0,7.862849
2492.0,7.862849
2494.0,7.862849
2496.0,7.862849
2498.0,7.862849
2500.0,7.862849
2502.0,7.862849
2504.0,7.862849
2506.0,7.862849
2508.0,7.959633
2510.0,7.862849
2512.0,7.862849
2514.0,7.862849
2516.0,7.862849
2518.0,7.862849
2520.0,7.862849
2522.0,7.862849
2524.0,7.862849
2526.0,7.862849
2528.0,7.862849
2530.0,7.862849
2532.0,7.862849
2534.0,7.862849
2536.0,7.959633
2538.0,7.862849
2540.0,7.862849
2542.0,7.862849
2544.0,7.862849
2546.0,7.862849
2548.0,7.862849
2550.0,7.862849
2552.0,7.862849
2554.0,7.862849
2556.0,7.862849
2558.0,7.862849
2560.0,7.862849
2562.0,7.862849
2564.0,7.766066
2566.0,7.862849
2568.0,7.766066
2570.0,7.766066
2572.0,7.766066
2574.0,7.766066
2576.0,7.766066
2578.0,7.862849
2580.0,7.766066
2582.0,7.766066
2584.0,7.766066
2586.0,7.766066
2588.0,7.766066
2590.0,7.766066
2592.0,7.766066
2594.0,7.766066
2596.0,7.766066
2598.0,7.766066
2600.0,7.766066
2602.0,7.766066
2604.0,7.766066
2606.0,7.862849
2608.0,7.766066
2610.0,7.766066
2612.0,7.766066
2614.0,7.766066
2616.0,7.766066
2618.0,7.862849
2620.0,8.056417
2622.0,7.862849
2624.0,7.862849
2626.0,7.862849
2628.0,7.862849
2630.0,7.862849
2632.0,7.862849
2634.0,7.862849
2636.0,7.862849
2638.0,7.862849
2640.0,7.862849
2642.0,7.862849
2644.0,7.766066
2646.0,7.766066
2648.0,7.766066
2650.0,7.766066
2652.0,7.766066
2654.0,7.862849
2656.0,7.862849
2658.0,7.862849
2660.0,7.862849
2662.0,7.862849
2664.0,7.862849
2666.0,7.766066
2668.0,7.766066
2670.0,7.766066
2672.0,7.766066
2674.0,7.766066
2676.0,7.766066
2678.0,7.766066
2680.0,7.766066
2682.0,7.766066
2684.0,7.766066
