time,pressure
0.0,231.071362
0.158333,231.090719
0.356111,231.061683
0.395833,231.061683
0.547778,229.000187
0.7525,225.709535
0.886389,223.967426
1.042778,222.215638
1.3275,219.466976
1.636111,217.144163
1.784444,216.166646
1.931111,215.373018
2.080278,214.540677
2.236111,213.727692
2.405,212.943743
2.696111,211.714587
3.004722,210.62093
3.033333,210.62093
3.165,210.088618
3.337778,209.517594
3.455,209.149815
3.682778,208.482006
3.824167,208.085192
4.003611,207.610951
4.037222,207.610951
4.165,207.214137
4.329722,206.817324
4.469722,206.497937
4.650278,206.110801
4.787778,205.830128
4.9375,205.539776
5.086944,205.239746
5.215833,205.007465
5.235556,204.97843
5.451667,204.600973
5.653611,204.262229
6.001111,203.729918
6.130833,203.546029
6.394167,203.187928
6.553056,202.984682
6.682222,202.984682
6.735556,202.762079
6.855556,202.616904
6.992222,202.655617
7.138333,202.442693
7.262778,202.27816
7.397778,202.123306
7.518056,201.97813
7.691667,201.97813
7.733889,201.755527
7.875833,201.610351
7.977778,201.610351
8.0225,201.455497
8.230278,201.261929
8.388056,201.107075
8.536944,200.971578
8.72,200.816723
8.8775,200.671548
8.986111,200.671548
9.0225,200.565085
9.148333,200.458623
9.269722,200.458623
9.296111,200.342483
9.488889,200.17795
9.771944,199.974704
9.910278,199.868242
10.059444,199.752101
10.180278,199.664995
10.31,199.664995
10.323333,199.568212
10.453611,199.481106
10.689444,199.481106
10.706667,199.287538
10.849722,199.181076
10.980556,199.103649
11.104167,199.016543
11.2325,198.939116
11.521389,198.755227
11.693333,198.755227
11.800833,198.590694
11.944722,198.590694
11.956111,198.493911
12.093611,198.416483
16.247778,198.416483
16.251111,196.422736
16.366389,196.384022
16.499444,196.384022
16.511111,196.316273
16.688333,196.248525
16.823333,196.190454
16.961111,196.132384
17.095556,196.074314
17.245,196.016243
17.379722,195.948495
17.519167,195.948495
17.523333,195.890424
17.694722,195.822676
17.776944,195.822676
17.984722,195.706535
18.136389,195.648465
18.240556,195.609751
18.388056,195.551681
18.725833,195.43554
18.780278,195.43554
18.861944,195.37747
18.994444,195.338756
19.038611,195.338756
19.122222,195.280686
19.261944,195.232294
19.390278,195.183902
19.5125,195.145189
19.709722,195.07744
19.904722,195.009691
20.04,195.009691
20.05,194.961299
20.201389,194.912907
20.303611,194.912907
20.333889,194.864515
20.470833,194.825802
20.796944,194.699983
20.925278,194.661269
21.199444,194.564485
21.311944,194.564485
21.358611,194.516093
21.465,194.47738
21.62,194.47738
21.646389,194.41931
21.826944,194.361239
21.953611,194.322526
22.094444,194.274134
22.232778,194.225742
22.3675,194.187028
22.477778,194.157993
22.661111,194.157993
22.668889,194.090244
22.836389,194.041852
22.916944,194.041852
23.006111,193.983782
23.127778,193.954747
23.279167,193.906355
23.399444,193.867641
23.530833,193.828928
23.725,193.770858
23.866944,193.732144
23.951111,193.732144
24.018611,193.693431
24.187778,193.645039
24.209167,193.645039
24.368611,193.586968
24.535278,193.538576
24.731667,193.490184
24.863056,193.451471
24.992778,193.412757
25.135278,193.364365
25.225556,193.364365
25.251944,193.315973
25.388611,193.286938
25.492778,193.286938
25.534167,193.238546
25.691667,193.190154
25.820556,193.151441
25.953056,193.122406
26.071944,193.083692
26.222778,193.0353
26.381944,192.996587
26.516111,192.996587
26.7375,192.890124
26.776389,192.890124
26.8925,192.851411
27.184167,192.764305
27.338889,192.725592
27.511944,192.686878
27.754722,192.628808
27.810278,192.628808
27.905833,192.590094
28.075833,192.590094
28.1025,192.541702
28.251389,192.502989
28.380833,192.483632
28.533056,192.454597
28.740556,192.406205
28.872222,192.37717
29.036111,192.348135
29.098056,192.348135
29.193889,192.3191
29.346111,192.280386
29.3675,192.280386
29.469444,192.261029
29.675,192.222316
29.808611,192.193281
29.957222,192.164245
30.092778,192.144889
30.243889,192.115853
30.3875,192.115853
30.418611,192.07714
30.621389,192.048105
30.646667,192.048105
30.793889,192.009391
30.948611,191.980356
31.081944,191.960999
31.223611,191.931964
31.3675,191.902929
31.448889,191.893251
31.667222,191.893251
31.679444,191.980356
31.819722,191.912607
31.933333,191.912607
32.071111,191.83518
32.189444,191.815823
32.333889,191.786788
32.438611,191.767431
32.635278,191.728718
32.770833,191.690004
32.944444,191.690004
33.056667,191.641612
33.207778,191.641612
33.211944,191.602899
33.325833,191.583542
33.473889,191.544829
33.808889,191.486758
33.929167,191.467401
34.046944,191.438366
34.201111,191.399653
34.221944,191.399653
34.343333,191.389974
34.487222,191.389974
34.641111,191.331904
34.833333,191.29319
34.975833,191.264155
35.134722,191.23512
35.261944,191.215763
35.395833,191.196407
35.5075,191.196407
35.5225,191.167371
35.715,191.128658
35.768056,191.128658
35.881667,191.089944
36.016944,191.070588
36.14,191.041552
36.264722,191.022196
36.408889,190.983482
36.541111,190.973804
36.705,190.944769
36.770556,190.944769
36.856667,190.915733
37.026111,190.915733
37.1225,190.867341
37.398333,190.81895
37.516111,190.799593
37.825,190.751201
37.954722,190.722166
38.027222,190.722166
38.216667,190.683452
38.285556,190.683452
38.3575,190.664095
38.525,190.63506
38.731111,190.606025
38.865833,190.57699
38.991111,190.557633
39.136667,190.538276
39.263056,190.509241
39.288333,190.509241
39.412778,190.480206
39.522778,190.470528
39.543333,190.470528
39.721389,190.431814
39.906944,190.402779
40.048889,190.383422
40.189722,190.354387
40.315,190.33503
40.452778,190.315673
40.550556,190.315673
40.645,190.286638
40.831389,190.286638
40.838333,190.257603
40.989722,190.228568
41.145,190.209211
41.286667,190.180176
41.396944,190.170498
41.538333,190.141462
41.722778,190.112427
41.853333,190.112427
41.886111,190.083392
42.019167,190.064035
42.133056,190.064035
42.138056,190.044679
42.282222,190.025322
42.402778,190.005965
42.531944,189.996287
42.701389,189.957573
42.823333,189.947895
42.965833,189.91886
43.0725,189.909181
43.136667,189.909181
43.2,189.889824
43.346667,189.870468
43.392222,189.870468
43.489722,189.841432
43.674167,189.822076
43.811944,189.802719
43.95,189.783362
44.098056,189.754327
44.213333,189.73497
44.360833,189.715613
44.396944,189.715613
44.490833,189.686578
44.6525,189.686578
44.819722,189.638186
44.953889,189.628508
45.0925,189.599473
45.256111,189.580116
45.404167,189.551081
45.632222,189.522046
45.653056,189.522046
45.775278,189.502689
45.923333,189.502689
45.931667,189.473654
46.097222,189.444619
46.231944,189.43494
46.400833,189.405905
46.626111,189.367191
46.775833,189.347835
46.918889,189.3188
46.94,189.3188
47.1025,189.299443
47.220278,189.299443
47.246111,189.270408
47.628333,189.212337
47.999167,189.154267
48.180556,189.125232
48.249444,189.125232
48.326111,189.105875
48.501667,189.105875
48.5575,189.07684
48.739722,189.047805
48.8775,189.038126
49.043889,189.009091
49.197222,188.980056
49.382222,188.960699
49.519444,188.960699
49.527778,188.931664
49.741944,188.902629
49.772778,188.902629
49.905556,188.89295
50.023056,188.873594
50.155278,188.854237
50.405278,188.815523
50.738056,188.767131
50.778056,188.767131
51.065,188.767131
51.076944,188.71874
51.218333,188.699383
51.381944,188.680026
51.501667,188.660669
51.710278,188.641312
51.870556,188.621956
52.040278,188.59292
52.077222,188.59292
52.144722,188.583242
52.268611,188.573564
52.328611,188.573564
52.409167,188.554207
52.628611,188.53485
52.781111,188.515493
52.915556,188.505815
53.036111,188.486458
53.3125,188.457423
53.3475,188.457423
53.610833,188.457423
53.765278,188.41871
53.872222,188.409031
53.999722,188.389674
54.1375,188.389674
54.285833,188.379996
54.425833,188.350961
54.548333,188.341282
54.626389,188.341282
54.709444,188.321926
54.860556,188.312247
54.877778,188.312247
55.040833,188.29289
55.177778,188.283212
55.298611,188.263855
55.416389,188.254177
55.555,188.23482
55.740556,188.225142
55.883056,188.225142
55.888611,188.205785
56.018333,188.186428
56.139722,188.186428
56.144722,188.186428
56.301389,188.167071
56.416111,188.147715
56.549167,188.138036
56.725,188.128358
56.923611,188.109001
57.061944,188.089644
57.170556,188.089644
57.218056,188.079966
57.358333,188.079966
57.457222,188.079966
57.498611,188.060609
57.666111,188.050931
57.868889,188.031574
57.993611,188.021896
58.139167,188.012217
58.291111,187.99286
58.420278,187.983182
58.460833,187.983182
58.538889,187.983182
58.717222,187.983182
58.7275,187.963825
58.918611,187.944469
59.060556,187.93479
59.213333,187.925112
59.348889,187.905755
59.491667,187.896077
59.696944,187.87672
59.728889,187.87672
59.800278,187.87672
59.961111,187.867041
59.986111,187.867041
60.108611,187.847685
60.245556,187.838006
60.379444,187.828328
60.490556,187.828328
60.669444,187.818649
60.835833,187.808971
60.972222,187.799293
60.989167,187.799293
61.096667,187.779936
61.238333,187.779936
61.255,187.779936
61.497222,187.760579
61.7,187.750901
61.847222,187.741222
61.985556,187.731544
62.28,187.731544
62.303333,187.712187
62.426667,187.702509
62.534722,187.702509
62.623056,187.69283
62.881111,187.673474
63.019444,187.673474
63.138889,187.663795
63.277778,187.663795
63.406389,187.644439
63.532778,187.63476
63.559167,187.63476
63.713056,187.625082
63.817222,187.625082
63.821389,187.615403
63.954722,187.605725
64.105278,187.605725
64.231111,187.596047
64.375556,187.586368
64.548611,187.57669
64.738611,187.567011
64.845278,187.567011
64.945278,187.557333
65.102222,187.557333
65.119722,187.537976
65.278611,187.537976
65.433056,187.518619
65.556111,187.518619
65.753056,187.508941
65.895278,187.489584
66.118333,187.489584
66.164167,187.470228
66.311111,187.460549
66.405556,187.460549
66.430833,187.450871
66.565278,187.441192
66.753056,187.431514
66.926111,187.412157
67.089444,187.402479
67.231389,187.3928
67.350556,187.3928
67.408333,187.3928
67.500556,187.373444
67.666111,187.373444
67.69,187.363765
67.866111,187.363765
67.991944,187.354087
68.174167,187.344409
68.345833,187.33473
68.550278,187.325052
68.677222,187.325052
68.737778,187.315373
68.899167,187.315373
68.928889,187.315373
69.083333,187.305695
69.244722,187.296017
69.413056,187.286338
69.655,187.266981
69.794444,187.266981
69.951667,187.266981
70.005556,187.247625
70.195833,187.237946
70.222778,187.237946
70.352778,187.237946
70.688611,187.218589
70.822222,187.208911
71.001667,187.199233
71.130833,187.199233
71.225556,187.199233
71.303611,187.189554
71.479167,187.170198
71.508056,187.170198
71.701667,187.160519
71.901389,187.150841
72.053333,187.141162
72.191111,187.131484
72.2975,187.121806
72.494167,187.121806
72.510833,187.121806
72.769722,187.121806
72.846389,187.09277
72.972778,187.09277
73.135,187.083092
73.260833,187.083092
73.400833,187.063735
73.770556,187.063735
73.778056,187.054057
73.918611,187.044379
74.027778,187.044379
74.031944,187.044379
74.195833,187.0347
74.3225,187.025022
74.475833,187.025022
74.735278,187.005665
74.970833,186.995987
75.075,186.995987
75.118889,186.986308
75.236944,186.986308
75.332222,186.986308
75.371944,186.97663
75.499722,186.97663
75.716944,186.966951
75.880833,186.957273
76.19,186.947595
76.325833,186.937916
76.350833,186.937916
76.483889,186.937916
76.626389,186.937916
76.702222,186.918559
76.845833,186.918559
77.122778,186.889524
77.267222,186.879846
77.482222,186.870168
77.657778,186.870168
77.698889,186.850811
77.820833,186.841132
77.917778,186.841132
77.996944,186.831454
78.100833,186.821776
78.282778,186.821776
78.44,186.802419
78.563333,186.802419
78.930556,186.802419
79.049722,186.763705
79.181111,186.763705
79.189444,186.763705
79.298611,186.763705
79.416667,186.754027
79.548333,186.754027
79.739167,186.754027
79.906667,186.744349
80.038889,186.744349
80.173611,186.724992
80.194722,186.724992
80.424444,186.724992
80.450278,186.724992
80.556389,186.715313
80.735833,186.715313
80.865,186.715313
80.983889,186.705635
81.124167,186.705635
81.26,186.686278
81.463333,186.686278
81.684722,186.666921
81.716111,186.666921
81.818056,186.657243
81.968056,186.657243
82.101667,186.647565
82.226389,186.637886
82.403333,186.628208
82.55,186.628208
82.730833,186.628208
82.743889,186.608851
82.928333,186.608851
82.9975,186.608851
83.065556,186.599173
83.196944,186.589494
83.330833,186.589494
83.461389,186.579816
83.664444,186.570138
83.795278,186.570138
83.932778,186.560459
84.049722,186.560459
84.191667,186.550781
84.326111,186.550781
84.334444,186.541102
84.451389,186.541102
84.643056,186.531424
84.792222,186.521746
85.151944,186.512067
85.334722,186.512067
85.424444,186.49271
85.566667,186.49271
85.637778,186.49271
85.739722,186.483032
85.885278,186.473354
86.02,186.473354
86.194722,186.463675
86.3325,186.453997
86.472222,186.453997
86.642222,186.453997
86.726667,186.43464
86.869722,186.43464
86.895833,186.43464
87.067778,186.424962
87.206389,186.415283
87.336111,186.405605
87.489722,186.405605
87.67,186.395927
87.837778,186.386248
87.931944,186.386248
87.990833,186.386248
88.100556,186.386248
88.203889,186.386248
88.219722,186.37657
88.384167,186.37657
88.535278,186.366891
88.750833,186.357213
88.924722,186.357213
89.069444,186.347535
89.185,186.337856
89.212778,186.337856
89.290833,186.337856
89.435833,186.328178
89.476667,186.328178
89.741111,186.318499
89.876389,186.318499
90.033889,186.299143
90.164722,186.299143
90.430278,186.289464
90.488056,186.289464
90.561111,186.279786
90.740833,186.279786
90.749167,186.270108
91.044167,186.270108
91.216944,186.260429
91.350833,186.250751
91.565278,186.241072
91.7425,186.241072
91.748056,186.231394
91.899444,186.231394
91.998333,186.231394
92.048056,186.221716
92.21,186.212037
92.3475,186.202359
92.479722,186.19268
92.658611,186.19268
92.793611,186.183002
92.947222,186.183002
93.034444,186.183002
93.103889,186.183002
93.265556,186.173324
93.306389,186.173324
93.418056,186.173324
93.651944,186.163645
93.797778,186.153967
93.953056,186.153967
94.094167,186.144289
94.27,186.13461
94.319722,186.13461
94.384444,186.13461
94.613056,186.13461
94.732778,186.124932
94.906111,186.124932
95.111389,186.105575
95.2725,186.095897
95.419722,186.095897
95.618889,186.095897
95.623889,186.086218
95.7675,186.07654
95.907778,186.07654
95.923889,186.07654
96.060833,186.07654
96.331667,186.066861
96.658611,186.057183
96.781944,186.066861
96.891389,186.066861
96.915556,186.066861
97.026111,186.057183
97.161944,186.066861
97.183056,186.066861
97.316944,186.057183
97.462778,186.057183
97.638056,186.057183
97.793611,186.047505
97.952778,186.047505
98.150556,186.047505
98.193333,186.047505
98.315278,186.037826
98.444167,186.037826
98.472778,186.028148
98.795833,186.008791
98.796111,186.008791
98.964444,186.008791
99.342222,185.999113
99.459444,185.999113
99.478611,185.989434
99.671944,185.989434
99.7425,185.989434
99.826944,185.979756
100.151111,185.970078
100.291111,185.970078
100.474167,185.960399
100.693333,185.950721
100.7475,185.950721
100.875,185.950721
101.008333,185.950721
101.042222,185.950721
101.254167,185.931364
101.393889,185.921686
101.537222,185.912007
101.868333,185.902329
101.98,185.902329
102.025833,185.902329
102.104167,185.89265
102.248333,185.89265
102.287778,185.89265
102.36,185.882972
102.520833,185.882972
102.7025,185.873294
102.863056,185.873294
103.116111,185.863615
103.23,185.853937
103.289722,185.853937
103.364444,185.853937
103.511389,185.844259
103.555833,185.844259
103.698056,185.844259
103.871111,185.83458
103.982222,185.83458
104.125556,185.824902
104.254722,185.824902
104.400833,185.824902
104.550833,185.824902
104.619167,185.824902
104.724167,185.805545
104.859722,185.805545
104.876667,185.805545
105.138056,185.795867
105.2625,185.795867
105.3975,185.786188
105.508333,185.786188
105.683333,185.786188
105.807778,185.77651
105.899167,185.77651
105.958889,185.77651
106.150833,185.766831
106.171944,185.766831
106.3175,185.766831
106.452778,185.766831
106.631944,185.766831
106.826944,185.747475
106.974722,185.747475
107.107222,185.737796
107.181667,185.737796
107.255556,185.737796
107.41,185.737796
107.445556,185.737796
107.528056,185.718439
107.729167,185.718439
107.860833,185.718439
107.997778,185.708761
108.254444,185.708761
108.3725,185.708761
108.448889,185.708761
108.518889,185.708761
108.681389,185.708761
108.703333,185.708761
108.815833,185.699083
108.960833,185.699083
109.083889,185.689404
109.224167,185.689404
109.360556,185.689404
109.503333,185.679726
109.697222,185.679726
109.715,185.679726
109.856389,185.679726
109.98,185.679726
109.984167,185.670048
110.250278,185.670048
110.385556,185.660369
110.499444,185.660369
110.859444,185.641012
111.001944,185.641012
111.006111,185.641012
111.276944,185.641012
111.289167,185.631334
111.375,185.631334
111.543889,185.621656
111.731667,185.621656
111.868333,185.621656
111.973611,185.621656
112.109444,185.611977
112.252222,185.602299
112.293056,185.602299
112.393333,185.602299
112.493333,185.602299
112.700278,185.573264
112.843611,185.563585
112.967778,185.553907
113.099167,185.544229
113.245556,185.53455
113.373889,185.524872
113.523889,185.524872
113.726667,185.515193
113.873056,185.505515
114.17,185.495837
114.348056,185.486158
114.485278,185.47648
114.673611,185.47648
114.819722,185.466801
114.9675,185.457123
115.157778,185.457123
115.305833,185.447445
115.4475,185.437766
115.668889,185.437766
115.806944,185.428088
115.9675,185.428088
116.081111,185.418409
116.2125,185.408731
116.363333,185.418409
116.475833,185.408731
116.693056,185.399053
116.813333,185.389374
116.985,185.389374
117.210556,185.379696
117.381667,185.370018
117.564444,185.360339
117.790278,185.360339
117.956111,185.350661
118.241111,185.350661
118.417778,185.340982
118.527222,185.340982
118.756667,185.331304
118.855,185.331304
118.990278,185.331304
119.129167,185.321626
119.270278,185.321626
119.4325,185.311947
119.6875,185.311947
119.844722,185.311947
120.014444,185.302269
120.144167,185.302269
120.263611,185.29259
120.418333,185.29259
120.568889,185.29259
120.762222,185.282912
120.921111,185.282912
121.080278,185.273234
121.203611,185.273234
121.348056,185.273234
121.477222,185.263555
121.818333,185.253877
121.950556,185.253877
122.355833,185.244199
122.499444,185.23452
122.808611,185.224842
122.965556,185.215163
123.240556,185.215163
123.408889,185.205485
123.553333,185.205485
123.723611,185.195807
123.878333,185.195807
124.035556,185.195807
124.261944,185.186128
124.668333,185.166771
124.823333,185.166771
125.007778,185.157093
125.278333,185.147415
125.383889,185.147415
125.538333,185.137736
125.703333,185.137736
125.851944,185.128058
126.138611,185.128058
126.249722,185.128058
126.378056,185.118379
126.547222,185.118379
126.726667,185.108701
126.864722,185.108701
127.039722,185.108701
127.240833,185.089344
127.389167,185.089344
127.571944,185.089344
127.767222,185.079666
127.890833,185.079666
128.0425,185.069988
128.211389,185.060309
128.4925,185.060309
128.651944,185.050631
128.843889,185.040952
128.9775,185.040952
129.135833,185.031274
129.288333,185.031274
129.430278,185.031274
129.549722,185.021596
129.738056,185.031274
129.871111,185.021596
129.980278,185.021596
130.130556,185.011917
130.264444,185.011917
130.383889,185.011917
130.527222,185.011917
130.715556,185.002239
131.080278,184.99256
131.222222,184.99256
131.344444,184.99256
131.484444,184.99256
131.801389,184.982882
131.951111,184.982882
132.091389,184.973204
132.204722,184.973204
132.346667,184.963525
132.479167,184.973204
132.654722,184.953847
132.798333,184.953847
133.213889,184.944168
133.378056,184.944168
133.516944,184.93449
133.853611,184.93449
133.992778,184.924812
134.120556,184.924812
134.252222,184.924812
134.392778,184.924812
134.720833,184.915133
134.897222,184.905455
135.013333,184.915133
135.156111,184.915133
135.430278,184.905455
135.563056,184.895777
135.71,184.886098
135.9125,184.886098
136.073611,184.87642
136.345556,184.87642
136.470833,184.87642
136.834722,184.866741
136.957222,184.866741
137.088889,184.857063
137.206944,184.857063
137.358056,184.857063
137.475556,184.847385
137.558056,184.847385
137.728056,184.847385
137.873333,184.837706
137.992222,184.837706
138.174167,184.837706
138.315556,184.837706
