time,pressure
0.0,161.39281
0.930556,151.714423
1.789444,147.843068
2.681667,143.003875
3.495,140.100359
4.368611,137.196842
5.2525,134.293326
6.133056,131.38981
7.083889,129.454133
7.953333,127.518455
8.846944,125.582778
10.326667,121.711423
11.351667,126.550616
12.418611,129.454133
13.285278,131.38981
14.159444,133.325488
15.041111,134.293326
15.908611,136.229004
16.680556,137.196842
17.573889,137.196842
18.454722,138.164681
19.373333,139.13252
20.24,139.13252
21.104167,139.13252
21.774167,133.325488
22.446389,130.421971
23.295278,127.518455
24.180278,124.614939
25.059167,121.711423
25.961389,118.807907
26.873333,116.872229
27.740556,114.936552
28.660833,113.000874
29.553056,111.065197
30.390278,110.097358
31.253611,108.161681
32.142222,107.193842
34.364167,105.258165
34.715833,105.258165
35.587222,104.290326
36.491667,103.322487
37.376667,102.354649
38.278889,101.38681
39.156944,100.418971
39.9,99.451132
40.775,98.483294
41.682222,97.515455
42.574167,96.547616
43.443056,95.579777
44.422222,95.579777
45.281389,94.611939
46.209444,93.6441
47.079167,92.676261
47.909722,91.708423
48.7775,91.708423
49.643056,90.740584
50.530278,89.772745
51.424722,88.804906
52.090833,88.804906
52.952778,87.837068
53.878056,87.837068
54.722778,86.869229
55.677222,86.869229
56.544167,85.90139
58.514167,83.965713
59.266111,83.965713
60.090833,82.997874
61.050278,82.030035
61.984722,81.062197
62.844444,81.062197
63.698333,80.094358
64.664722,80.094358
65.491389,79.126519
66.451389,79.126519
67.3275,78.158681
68.472778,77.190842
69.3175,77.190842
70.205,77.190842
71.097778,76.223003
72.0,76.223003
72.867778,75.255164
73.731667,75.255164
75.613333,74.287326
76.509722,73.319487
77.401944,73.319487
78.274722,72.351648
79.132778,72.351648
80.070833,72.351648
82.263611,71.383809
82.621389,71.383809
83.44,70.415971
84.31,70.415971
85.159167,70.415971
86.041944,69.448132
86.915833,69.448132
87.816944,69.448132
88.6825,68.480293
89.563056,68.480293
90.434722,68.480293
91.282222,68.480293
92.145,67.512455
93.058056,67.512455
93.954167,67.512455
94.8275,66.544616
95.719444,66.544616
96.610278,66.544616
97.488333,65.576777
98.386944,65.576777
99.226389,65.576777
103.548333,66.544616
104.191111,65.576777
105.014722,65.576777
105.886667,65.576777
106.748611,65.576777
109.236111,68.480293
123.259444,84.933552
124.195278,81.062197
124.951389,79.126519
127.068056,76.223003
127.953889,75.255164
128.764167,74.287326
129.654444,73.319487
130.526667,72.351648
131.240278,72.351648
132.127778,71.383809
134.125556,70.415971
134.775833,69.448132
135.670278,69.448132
136.616111,68.480293
137.594722,68.480293
138.485556,67.512455
139.384167,67.512455
140.230556,66.544616
141.113333,66.544616
141.993889,65.576777
142.865556,65.576777
143.747222,65.576777
144.417222,64.608938
145.123056,64.608938
145.894167,64.608938
146.595833,64.608938
147.191111,63.6411
147.918333,63.6411
148.676111,63.6411
149.406389,62.673261
150.106944,62.673261
150.838889,62.673261
151.542222,62.673261
152.245556,62.673261
152.408333,62.673261
152.968611,61.705422
153.729167,61.705422
154.520278,61.705422
155.119444,61.705422
156.113889,63.6411
158.127222,66.544616
158.7075,67.512455
159.606667,68.480293
160.513611,69.448132
161.419444,70.415971
162.261667,69.448132
163.264722,67.512455
164.131944,66.544616
165.038056,66.544616
165.906111,65.576777
166.817222,64.608938
167.694722,64.608938
168.596111,63.6411
169.4875,63.6411
170.150278,63.6411
171.079722,64.608938
172.017222,66.544616
172.975278,67.512455
173.92,66.544616
174.873611,65.576777
175.776944,64.608938
176.652778,63.6411
177.554167,63.6411
178.392222,62.673261
179.243056,62.673261
180.097222,61.705422
182.092222,60.737584
182.548889,60.737584
183.473889,60.737584
184.361944,59.769745
185.242778,59.769745
186.140556,58.801906
187.039444,58.801906
187.948889,57.834067
188.873333,57.834067
189.717222,57.834067
190.633889,56.866229
191.531111,56.866229
192.446667,56.866229
193.299722,55.89839
194.196389,55.89839
195.029167,55.89839
195.996944,55.89839
197.041944,55.89839
197.94,55.89839
198.866389,55.89839
199.8525,55.89839
201.659167,55.89839
202.515278,55.89839
203.496389,55.89839
204.496389,55.89839
206.351111,55.89839
207.18,55.89839
208.133056,55.89839
209.049722,54.930551
210.010278,54.930551
210.933889,54.930551
211.841944,54.930551
212.752778,54.930551
213.680833,54.930551
214.608889,54.930551
215.528889,54.930551
216.455278,54.930551
217.401667,54.930551
218.26,54.930551
219.181667,54.930551
220.105,54.930551
221.031944,53.962713
221.935556,53.962713
222.871389,53.962713
224.058056,53.962713
225.014444,53.962713
225.946944,53.962713
226.841389,53.962713
227.810556,53.962713
228.7575,53.962713
230.256944,53.962713
231.428056,53.962713
232.412778,52.994874
233.295556,52.994874
234.242222,52.994874
235.215,52.994874
236.168056,52.994874
237.140556,52.994874
238.073333,52.994874
239.006667,52.994874
239.942222,52.994874
240.866944,52.994874
241.805278,52.994874
242.730833,52.027035
243.655556,52.027035
245.393611,52.027035
246.305278,52.027035
247.226944,52.027035
248.039167,52.027035
248.999722,52.027035
249.929167,52.027035
250.93,52.027035
251.886111,52.027035
252.486389,52.027035
254.2775,52.027035
254.633611,51.059196
255.562222,51.059196
256.541111,51.059196
257.603056,51.059196
259.155,51.059196
260.384722,51.059196
261.276389,51.059196
262.236667,51.059196
263.381944,51.059196
264.241944,51.059196
265.186389,50.091358
266.200556,50.091358
267.111667,50.091358
268.059444,50.091358
269.016944,50.091358
269.965833,50.091358
270.933889,50.091358
271.871389,50.091358
272.786111,50.091358
273.744722,50.091358
274.664167,50.091358
275.586111,50.091358
276.536944,50.091358
278.3275,49.123519
279.129167,49.123519
280.076667,49.123519
281.013889,49.123519
281.965556,49.123519
282.900556,49.123519
283.834444,49.123519
284.765556,49.123519
285.676111,49.123519
286.623889,49.123519
287.566111,49.123519
288.488333,49.123519
289.415278,48.15568
290.279722,48.15568
291.166111,48.15568
292.018333,48.15568
292.901111,48.15568
293.831944,48.15568
294.751389,48.15568
295.698056,48.15568
296.628611,48.15568
297.566389,48.15568
298.505556,48.15568
299.495556,48.15568
300.41,48.15568
302.250833,48.15568
302.981111,47.187841
303.901944,47.187841
304.801944,47.187841
305.690278,47.187841
306.662778,47.187841
307.596667,47.187841
308.487778,47.187841
309.406389,47.187841
310.2675,47.187841
311.013611,47.187841
311.940278,47.187841
312.853333,47.187841
313.783056,47.187841
314.714722,47.187841
315.715833,47.187841
316.686111,46.220003
317.642778,46.220003
318.6,46.220003
320.090278,46.220003
321.020556,46.220003
321.850278,46.220003
322.76,46.220003
323.656389,46.220003
324.591944,46.220003
325.511667,46.220003
326.46,46.220003
327.2925,46.220003
328.180556,46.220003
329.114444,46.220003
329.904167,46.220003
330.796667,45.252164
331.688611,45.252164
332.270278,45.252164
333.193056,45.252164
334.077778,45.252164
334.988889,45.252164
335.874722,45.252164
336.823056,45.252164
337.711944,45.252164
338.587778,45.252164
339.204444,45.252164
340.147222,45.252164
341.095278,45.252164
342.0575,45.252164
342.987222,45.252164
344.730278,45.252164
345.469722,45.252164
346.409444,45.252164
347.185556,45.252164
348.118056,45.252164
349.105278,45.252164
350.041111,45.252164
350.958056,45.252164
352.801111,45.252164
352.995278,45.252164
353.663889,45.252164
354.581389,45.252164
355.4825,45.252164
356.448333,45.252164
357.294444,45.252164
358.243889,45.252164
359.160556,45.252164
360.079167,45.252164
361.015,45.252164
361.912222,45.252164
362.834444,45.252164
363.7275,45.252164
364.651389,45.252164
365.541389,45.252164
366.432778,45.252164
367.289167,45.252164
368.594444,45.252164
369.646111,45.252164
370.597222,45.252164
371.5,45.252164
372.413889,45.252164
373.188333,45.252164
374.113333,45.252164
374.951667,45.252164
375.816944,45.252164
376.683056,45.252164
377.474444,45.252164
378.176389,45.252164
379.200278,45.252164
380.051944,45.252164
380.862778,45.252164
381.648611,45.252164
382.499722,45.252164
383.4825,45.252164
384.276944,45.252164
385.077778,45.252164
386.102222,45.252164
386.975,45.252164
387.644444,45.252164
388.5025,45.252164
389.391389,45.252164
390.137222,45.252164
390.936667,45.252164
392.815278,45.252164
393.568056,45.252164
394.4225,45.252164
395.2375,45.252164
396.032778,45.252164
396.848611,45.252164
397.686389,45.252164
398.472778,45.252164
399.254722,45.252164
400.045556,45.252164
400.860278,45.252164
401.702778,45.252164
402.564722,45.252164
403.383056,45.252164
404.264444,45.252164
405.064167,45.252164
405.726111,45.252164
406.560833,45.252164
407.365,45.252164
408.208889,45.252164
409.033333,45.252164
409.866667,45.252164
410.748056,45.252164
411.608611,45.252164
412.428056,45.252164
413.235556,45.252164
414.048611,45.252164
414.88,45.252164
416.7925,45.252164
417.240833,45.252164
418.057778,45.252164
418.874444,45.252164
419.713333,45.252164
420.588889,45.252164
421.407222,45.252164
422.207778,44.284325
423.026389,44.284325
423.708333,44.284325
424.506667,44.284325
425.230278,44.284325
425.888333,44.284325
426.665833,44.284325
427.468889,44.284325
428.252778,44.284325
429.035556,44.284325
429.800833,44.284325
430.606667,44.284325
431.374722,44.284325
432.146944,44.284325
432.904444,44.284325
433.756944,44.284325
434.566944,44.284325
435.385278,44.284325
436.063333,44.284325
436.878889,44.284325
437.716111,44.284325
438.526389,44.284325
440.531667,44.284325
440.790556,44.284325
441.616667,44.284325
442.396111,44.284325
443.231944,44.284325
444.086667,44.284325
444.913333,44.284325
445.724167,44.284325
446.557222,44.284325
447.388611,44.284325
448.240278,44.284325
449.0825,44.284325
449.933611,44.284325
450.769444,44.284325
451.5825,44.284325
452.404444,44.284325
453.193889,44.284325
453.465278,44.284325
454.054722,44.284325
454.890833,44.284325
455.738611,44.284325
456.5575,44.284325
457.385833,44.284325
458.196944,44.284325
459.031111,44.284325
459.880278,44.284325
460.7325,44.284325
461.546389,44.284325
464.695,44.284325
464.965,44.284325
465.802778,44.284325
466.686389,44.284325
467.533889,44.284325
468.365278,44.284325
469.1525,44.284325
469.9725,45.252164
470.728056,46.220003
471.533056,46.220003
472.371944,47.187841
473.1825,47.187841
474.007778,46.220003
474.859444,46.220003
475.577778,45.252164
476.533333,45.252164
477.360278,45.252164
478.174722,45.252164
478.994722,45.252164
479.857778,45.252164
480.695,45.252164
481.518056,45.252164
482.336111,45.252164
483.146667,45.252164
483.844167,45.252164
484.682222,45.252164
485.503056,45.252164
486.520833,45.252164
488.77,45.252164
489.035556,45.252164
489.838889,45.252164
490.671667,45.252164
491.522222,45.252164
492.362222,45.252164
493.166667,45.252164
494.004444,46.220003
494.784167,46.220003
495.616389,47.187841
496.460278,48.15568
497.275556,48.15568
498.093333,48.15568
498.9325,47.187841
499.758611,47.187841
500.56,48.15568
501.394444,48.15568
502.206944,47.187841
503.019722,47.187841
503.868611,47.187841
504.714444,47.187841
505.5425,46.220003
506.374444,46.220003
507.184722,46.220003
508.037778,46.220003
508.8775,45.252164
509.720278,45.252164
510.556667,45.252164
512.868056,45.252164
513.246944,44.284325
514.154722,44.284325
514.973889,44.284325
515.765,44.284325
516.593333,44.284325
517.468611,44.284325
518.303056,44.284325
519.125556,44.284325
519.936667,44.284325
520.675556,44.284325
521.492222,44.284325
522.3325,43.316487
523.132222,43.316487
523.974167,43.316487
524.798889,43.316487
525.607222,43.316487
526.407778,43.316487
527.204722,43.316487
528.241389,43.316487
529.054722,43.316487
529.861111,43.316487
530.681111,43.316487
531.5025,43.316487
533.141111,42.348648
533.9325,42.348648
534.773333,42.348648
535.115833,42.348648
536.628333,42.348648
537.168889,42.348648
537.986111,42.348648
538.775,42.348648
539.613333,42.348648
540.630833,41.380809
541.486111,41.380809
542.283056,41.380809
543.149722,41.380809
544.772222,41.380809
545.5925,41.380809
546.418333,41.380809
547.243056,41.380809
548.079444,41.380809
548.990556,41.380809
549.796111,41.380809
550.653333,40.41297
551.531111,40.41297
552.385278,40.41297
553.189444,40.41297
554.028611,40.41297
554.903333,40.41297
555.716944,40.41297
556.558611,40.41297
557.387222,40.41297
558.067778,40.41297
558.953611,40.41297
560.69,39.445132
561.384722,39.445132
562.226389,39.445132
563.113889,39.445132
563.798611,39.445132
564.610556,39.445132
565.445833,39.445132
566.234444,39.445132
567.064167,39.445132
567.883056,39.445132
568.723611,39.445132
569.537222,39.445132
570.378056,39.445132
571.193056,39.445132
572.053611,39.445132
572.893333,39.445132
573.708333,39.445132
574.720833,39.445132
575.565,38.477293
576.415556,38.477293
577.656111,38.477293
578.502222,38.477293
579.389722,38.477293
580.141667,38.477293
580.853056,38.477293
581.830833,38.477293
582.720833,38.477293
584.985556,38.477293
585.794167,38.477293
586.806111,38.477293
588.959167,37.509454
589.843611,37.509454
590.663333,37.509454
591.739722,37.509454
593.563333,37.509454
594.393889,37.509454
595.198056,37.509454
597.016389,37.509454
597.879444,37.509454
598.697778,37.509454
599.496944,37.509454
600.303889,37.509454
601.141111,37.509454
601.969444,36.541616
602.820278,36.541616
603.670278,36.541616
604.448889,36.541616
605.236111,36.541616
606.09,36.541616
606.909167,36.541616
608.799444,36.541616
608.799722,36.541616
609.308056,36.541616
610.158333,36.541616
611.006944,36.541616
611.881389,36.541616
612.684167,36.541616
613.538333,36.541616
614.368056,36.541616
615.196944,36.541616
616.059444,36.541616
617.276667,36.541616
618.129444,36.541616
618.968056,36.541616
619.864722,36.541616
620.872222,36.541616
621.713889,36.541616
622.538333,36.541616
623.630833,35.573777
624.413056,35.573777
626.095833,35.573777
627.180556,35.573777
628.017778,35.573777
628.873333,35.573777
629.624444,35.573777
630.470833,35.573777
631.314444,35.573777
632.728056,35.573777
632.728333,35.573777
634.510556,35.573777
635.36,35.573777
636.303611,35.573777
637.137778,35.573777
637.924722,35.573777
638.7925,35.573777
639.665833,35.573777
640.505556,35.573777
641.358611,35.573777
642.193333,35.573777
643.035556,35.573777
643.873889,35.573777
644.564722,35.573777
645.424167,35.573777
646.665,35.573777
647.509444,34.605938
648.201111,34.605938
649.009444,34.605938
649.840833,34.605938
650.638611,34.605938
651.483333,34.605938
652.293611,34.605938
653.1225,34.605938
653.966667,34.605938
654.840556,34.605938
656.73,34.605938
657.185278,34.605938
658.005278,34.605938
658.072222,34.605938
658.875556,34.605938
659.728889,34.605938
660.583611,34.605938
661.456111,34.605938
662.344167,34.605938
663.167222,34.605938
663.828333,34.605938
664.6525,34.605938
666.2825,34.605938
667.099444,34.605938
667.946389,34.605938
668.793056,34.605938
669.62,34.605938
670.461667,34.605938
671.269722,34.605938
672.146111,34.605938
672.979444,34.605938
673.808889,34.605938
674.633333,34.605938
675.429444,34.605938
676.209722,34.605938
677.043333,34.605938
677.907222,34.605938
678.859444,34.605938
681.699167,34.605938
682.679167,34.605938
683.513333,34.605938
685.370556,34.605938
686.726944,34.605938
687.864722,34.605938
688.875833,34.605938
689.695833,34.605938
690.556667,34.605938
691.400556,34.605938
692.208333,34.605938
693.056667,34.605938
693.903333,34.605938
694.803889,34.605938
695.636944,34.605938
696.481667,34.605938
697.277778,34.605938
698.109167,34.605938
698.995556,34.605938
699.870833,34.605938
700.843333,34.605938
701.701944,33.638099
704.704444,34.605938
704.976944,34.605938
705.815833,33.638099
706.631111,33.638099
707.496944,33.638099
708.348611,33.638099
709.237778,33.638099
710.077778,33.638099
710.912222,33.638099
711.751111,33.638099
712.624167,33.638099
713.4575,33.638099
714.2525,33.638099
715.900833,33.638099
716.689722,33.638099
717.509722,33.638099
718.35,33.638099
719.180556,33.638099
720.050278,33.638099
720.876389,33.638099
721.8675,33.638099
722.688056,33.638099
723.5325,33.638099
724.38,33.638099
725.200278,33.638099
726.051944,33.638099
726.899167,33.638099
728.774167,33.638099
729.313056,33.638099
730.161389,33.638099
731.048611,33.638099
731.965556,33.638099
732.829444,33.638099
733.701944,33.638099
734.530556,33.638099
735.349722,33.638099
736.100278,33.638099
736.918889,33.638099
737.76,33.638099
738.575556,33.638099
739.365,34.605938
740.133611,34.605938
740.938056,34.605938
741.693056,34.605938
742.520278,34.605938
743.348333,34.605938
744.156111,34.605938
744.976944,34.605938
745.798611,34.605938
746.626389,34.605938
747.406944,34.605938
748.189444,34.605938
748.970278,34.605938
749.830556,34.605938
750.693889,34.605938
752.684167,34.605938
753.155,34.605938
754.006111,34.605938
754.896111,34.605938
755.773333,34.605938
756.608056,34.605938
757.916389,34.605938
758.226389,34.605938
759.119722,34.605938
759.993889,34.605938
760.843056,34.605938
761.718889,34.605938
762.570556,34.605938
763.415833,34.605938
764.241111,34.605938
765.108889,34.605938
765.965,34.605938
766.807222,34.605938
767.633056,34.605938
768.4825,34.605938
769.340556,34.605938
770.339167,35.573777
771.178889,35.573777
772.011667,35.573777
772.8225,34.605938
773.861944,34.605938
776.748333,35.573777
777.451389,35.573777
779.589722,35.573777
780.443611,35.573777
781.291944,35.573777
782.173056,35.573777
783.046111,35.573777
783.898333,35.573777
784.803056,35.573777
785.672222,35.573777
786.559444,35.573777
787.431111,35.573777
788.292778,35.573777
789.153611,35.573777
790.059444,35.573777
790.913333,35.573777
792.141111,35.573777
792.996667,35.573777
793.829444,35.573777
794.921944,35.573777
795.828333,35.573777
796.716111,35.573777
797.558611,35.573777
798.423333,35.573777
799.24,35.573777
800.666667,35.573777
801.755278,35.573777
802.599167,35.573777
803.446111,35.573777
804.267778,35.573777
805.063889,35.573777
805.906389,35.573777
806.719444,35.573777
808.218889,35.573777
809.102222,35.573777
809.970833,35.573777
810.857222,35.573777
811.728333,35.573777
812.546667,35.573777
813.376111,35.573777
814.213056,35.573777
815.068333,35.573777
815.926389,35.573777
816.777778,35.573777
817.630556,35.573777
818.481111,35.573777
819.398611,35.573777
820.232778,35.573777
821.126111,35.573777
821.997222,35.573777
828.999444,36.541616
831.792222,38.477293
832.695278,38.477293
833.542778,38.477293
834.408889,38.477293
835.253056,39.445132
836.024722,39.445132
836.837222,39.445132
837.682778,39.445132
838.530833,40.41297
839.387222,40.41297
840.199722,40.41297
841.049167,41.380809
841.875,41.380809
842.732778,41.380809
843.5575,42.348648
844.380833,42.348648
845.165,42.348648
846.004444,43.316487
846.850278,43.316487
847.683611,49.123519
848.498333,45.252164
849.241944,44.284325
850.098611,43.316487
850.99,43.316487
851.958056,42.348648
852.818056,42.348648
853.676944,41.380809
854.498611,41.380809
856.640278,41.380809
856.915556,41.380809
857.779444,40.41297
858.069722,40.41297
858.651944,41.380809
859.751111,41.380809
861.656389,41.380809
862.579167,41.380809
863.435833,41.380809
864.306667,41.380809
865.063889,41.380809
865.925556,41.380809
866.7925,41.380809
867.819167,41.380809
868.704444,41.380809
869.565833,41.380809
870.458889,41.380809
871.311389,41.380809
872.161111,41.380809
873.234444,41.380809
874.135833,40.41297
875.001944,40.41297
875.896111,40.41297
876.763056,40.41297
877.641389,40.41297
878.504444,40.41297
880.668056,40.41297
880.944722,40.41297
881.851111,40.41297
882.721389,40.41297
883.593611,40.41297
884.388611,40.41297
885.264444,40.41297
886.168611,40.41297
887.049167,40.41297
887.9525,40.41297
888.855556,40.41297
889.839167,40.41297
890.726944,40.41297
891.609722,40.41297
892.474444,40.41297
893.405278,40.41297
895.480556,39.445132
896.373889,39.445132
897.228333,39.445132
897.994722,39.445132
899.125556,39.445132
900.006389,39.445132
900.857778,39.445132
901.74,39.445132
902.629722,39.445132
904.648611,39.445132
905.05,39.445132
906.245,39.445132
907.123333,39.445132
908.496667,39.445132
909.347222,39.445132
910.23,39.445132
911.099167,39.445132
911.971944,39.445132
912.881389,39.445132
