time,pressure
0.0,109.116434
0.083333,108.535731
0.166667,108.013098
0.25,107.529178
0.333056,107.045259
0.416389,106.512948
0.499722,106.087099
0.583056,105.680606
0.666389,105.303149
0.749722,104.945049
0.833056,104.5192
0.916389,104.190135
0.999722,103.86107
1.083056,103.522326
1.166389,103.173904
1.249722,102.854517
1.332778,102.564166
1.416111,102.283493
1.499444,101.896357
1.582778,101.625362
1.666111,101.344689
1.749444,101.073694
1.832778,100.744629
1.916111,100.463956
1.999444,100.221996
2.082778,99.951001
2.166111,99.650971
2.249444,99.379976
2.3325,99.11866
2.415833,98.896057
2.499167,98.615384
2.5825,98.363746
2.665833,98.150821
2.749167,97.91854
2.8325,97.647545
2.915833,97.453977
2.999167,97.231374
3.0825,97.008772
3.165833,96.805525
3.248889,96.544209
3.332222,96.350641
3.415556,96.137717
3.498889,95.953827
3.582222,95.692511
3.665556,95.508621
3.748889,95.324732
3.832222,95.111808
3.915556,94.869848
3.998889,94.695637
4.082222,94.502069
4.165556,94.298823
4.248611,94.07622
4.331944,93.902009
4.415278,93.708441
4.498611,93.534231
4.581944,93.311628
4.665278,93.11806
4.748611,92.953527
4.831944,92.788995
4.915278,92.547035
4.998611,92.363146
5.081944,92.21797
5.165278,92.043759
5.248333,91.821156
5.331667,91.67598
5.415,91.511448
5.498333,91.327558
5.581667,91.182382
5.665,90.969458
5.748333,90.814604
5.831667,90.650071
5.915,90.514574
5.998333,90.301649
6.081667,90.146795
6.164722,89.991941
6.248056,89.837087
6.331389,89.672554
6.414722,89.498343
6.498056,89.353167
6.581389,89.198313
6.664722,89.024102
6.748056,88.859569
6.831389,88.73375
6.914722,88.578896
6.998056,88.414364
7.081389,88.278866
7.164444,88.143369
7.247778,88.007871
7.331111,87.843339
7.414444,87.707841
7.497778,87.572344
7.581111,87.436847
7.664444,87.243279
7.747778,87.098103
7.831111,86.981962
7.914444,86.8755
7.997778,86.701289
8.080833,86.57547
8.164167,86.449651
8.2475,86.323832
8.330833,86.198013
8.414167,86.052837
8.4975,85.927018
8.580833,85.791521
8.664167,85.665702
8.7475,85.510848
8.830833,85.394707
8.914167,85.249531
8.9975,85.13339
9.080556,84.988215
9.163889,84.872074
9.247222,84.765612
9.330556,84.620436
9.413889,84.47526
9.497222,84.349441
9.580556,84.242979
9.663889,84.11716
9.747222,83.971984
9.830556,83.846165
9.913889,83.720346
9.997222,83.613884
10.080278,83.459029
10.163611,83.342889
10.246944,83.21707
10.330278,83.100929
10.413611,82.955753
10.496944,82.829934
10.580278,82.723472
10.663611,82.607331
10.746944,82.462156
10.830278,82.355693
10.913611,82.229874
10.996667,82.13309
11.08,81.987915
11.163333,81.881452
11.246667,81.765312
11.33,81.658849
11.413333,81.542709
11.496667,81.41689
11.58,81.320106
11.663333,81.203965
11.746667,81.078146
11.83,81.000719
11.913333,80.884578
11.996389,80.787795
12.079722,80.661976
12.163056,80.565192
12.246389,80.449051
12.329722,80.352267
12.413056,80.255483
12.496389,80.149021
12.579722,80.061916
12.663056,79.955453
12.746389,79.839313
12.829722,79.742529
12.912778,79.655423
12.996111,79.548961
13.079444,79.442499
13.162778,79.355393
13.246111,79.248931
13.329444,79.181182
13.412778,79.07472
13.496111,78.977936
13.579444,78.890831
13.662778,78.803725
13.746111,78.706941
13.829444,78.610157
13.9125,78.523052
13.995833,78.435946
14.079167,78.329484
14.1625,78.252057
14.245833,78.164952
14.329167,78.077846
14.4125,77.971384
14.495833,77.884278
14.579167,77.797173
14.6625,77.710067
14.745833,77.622962
14.829167,77.545535
14.912222,77.448751
14.995556,77.361646
15.078889,77.264862
15.162222,77.197113
15.245556,77.100329
15.328889,77.022902
15.412222,76.926118
15.495556,76.829334
15.578889,76.751907
15.662222,76.67448
15.745556,76.548661
15.828611,76.471234
15.911944,76.393807
15.995278,76.297023
16.078611,76.190561
16.161944,76.113134
16.245278,76.045385
16.328611,75.948601
16.411944,75.851817
16.495278,75.764712
16.578611,75.696963
16.661944,75.609857
16.745278,75.513074
16.828333,75.367898
16.911667,75.300149
16.995,75.2324
17.078333,75.125938
17.161667,75.038833
17.245,74.971084
17.328333,74.8743
17.411667,74.796873
17.495,74.719446
17.578333,74.63234
17.661667,74.545235
17.745,74.477486
17.828056,74.380702
17.911389,74.322632
17.994722,74.225848
18.078056,74.158099
18.161389,74.061315
18.244722,74.012924
18.328056,73.925818
18.411389,73.838713
18.494722,73.770964
18.578056,73.693537
18.661389,73.606431
18.744444,73.519326
18.827778,73.441899
18.911111,73.37415
18.994444,73.296723
19.077778,73.219296
19.161111,73.151547
19.244444,73.07412
19.327778,72.987014
19.411111,72.919266
19.494444,72.841839
19.577778,72.745055
19.661111,72.686984
19.744167,72.599879
19.8275,72.53213
19.910833,72.435346
19.994167,72.377276
20.0775,72.290171
20.160833,72.2321
20.244167,72.144995
20.3275,72.077246
20.410833,72.019176
20.494167,71.93207
20.5775,71.854643
20.660833,71.777216
20.743889,71.719146
20.827222,71.651397
20.910556,71.564292
20.993889,71.506221
21.077222,71.438473
21.160556,71.33201
21.243889,71.27394
21.327222,71.196513
21.410556,71.090051
21.493889,71.041659
21.577222,71.022302
21.660278,71.03198
21.743611,71.012624
21.826944,70.993267
21.910278,70.983588
21.993611,70.97391
22.076944,70.944875
22.160278,70.91584
22.243611,70.906161
22.326944,70.867448
22.410278,70.838413
22.493611,70.838413
22.576944,70.799699
22.66,70.780342
22.743333,70.760985
22.826667,70.722272
22.91,70.712594
22.993333,70.67388
23.076667,70.644845
23.16,70.625488
23.243333,70.586774
23.326667,70.567418
23.41,70.538383
23.493333,70.509347
23.576667,70.489991
23.659722,70.441599
23.743056,70.43192
23.826389,70.402885
23.909722,70.364172
23.993056,70.325458
24.076389,70.296423
24.159722,70.286744
24.243056,70.238353
24.326389,70.209317
24.409722,70.170604
24.493056,70.151247
24.576389,70.13189
24.659444,70.083498
24.742778,70.044785
24.826111,70.025428
24.909444,69.986714
24.992778,69.938323
25.076111,69.918966
25.159444,69.899609
25.242778,69.841539
25.326111,69.822182
25.409444,69.783468
25.492778,69.744755
25.575833,69.71572
25.659167,69.677006
25.7425,69.638293
25.825833,69.618936
25.909167,69.560865
25.9925,69.541509
26.075833,69.512473
26.159167,69.483438
26.2425,69.454403
26.325833,69.406011
26.409167,69.396333
26.4925,69.338263
26.575556,69.299549
26.658889,69.280192
26.742222,69.251157
26.825556,69.222122
26.908889,69.17373
26.992222,69.164052
27.075556,69.11566
27.158889,69.086624
27.242222,69.057589
27.325556,68.999519
27.408889,68.980162
27.491944,68.951127
27.575278,68.922092
27.658611,68.893057
27.741944,68.844665
27.825278,68.844665
27.908611,68.796273
27.991944,68.776916
28.075278,68.728524
28.158611,68.718846
28.241944,68.680132
28.325278,68.641419
28.408611,68.612383
28.491667,68.57367
28.575,68.563992
28.658333,68.525278
28.741667,68.496243
28.825,68.457529
28.908333,68.438173
28.991667,68.389781
29.075,68.360745
29.158333,68.351067
29.241667,68.322032
29.325,68.283318
29.408333,68.263962
29.491389,68.234926
29.574722,68.21557
29.658056,68.186534
29.741389,68.157499
29.824722,68.118786
29.908056,68.089751
29.991389,68.051037
30.074722,68.022002
30.158056,68.002645
30.241389,67.992967
30.324722,67.944575
30.407778,67.925218
30.491111,67.896183
30.574444,67.886504
30.657778,67.857469
30.741111,67.789721
30.824444,67.770364
30.907778,67.770364
30.991111,67.741329
31.074444,67.712293
31.157778,67.683258
31.241111,67.644545
31.324444,67.634866
31.4075,67.605831
31.490833,67.576796
31.574167,67.557439
31.6575,67.528404
31.740833,67.489691
31.824167,67.470334
31.9075,67.450977
31.990833,67.412263
32.074167,67.392907
32.1575,67.354193
32.240833,67.334836
32.324167,67.325158
32.407222,67.296123
32.490556,67.276766
32.573889,67.218696
32.657222,67.209017
32.740556,67.179982
32.823889,67.150947
32.907222,67.13159
32.990556,67.102555
33.073889,67.083198
33.157222,67.054163
33.240556,67.034806
33.323611,67.01545
33.406944,66.996093
33.490278,66.967058
33.573611,66.928344
33.656944,66.899309
33.740278,66.879952
33.823611,66.870274
33.906944,66.841239
33.990278,66.812203
44.487222,64.353893
44.570556,64.344215
44.653889,64.324858
44.737222,64.324858
44.820556,64.305501
44.903889,64.286144
44.986944,64.266788
45.070278,64.257109
45.153611,64.237752
45.236944,64.208717
45.320278,64.189361
45.403611,64.179682
45.486944,64.160325
45.570278,64.140969
45.653611,64.140969
45.736944,64.121612
45.820278,64.102255
45.903611,64.082898
45.986667,64.07322
46.07,64.053863
46.153333,64.044185
46.236667,64.034506
46.32,64.034506
46.403333,64.005471
46.486667,63.976436
46.57,63.966758
46.653333,63.957079
46.736667,63.957079
46.82,63.918366
46.903056,63.908687
46.986389,63.899009
47.069722,63.879652
47.153056,63.850617
47.236389,63.850617
47.319722,63.840939
47.403056,63.821582
47.486389,63.792547
47.569722,63.792547
47.653056,63.782868
47.736389,63.744155
47.819722,63.724798
47.902778,63.724798
47.986111,63.705441
48.069444,63.686084
48.152778,63.666728
48.236111,63.647371
48.319444,63.657049
48.402778,63.637692
48.486111,63.598979
48.569444,63.550587
48.652778,63.540909
48.736111,63.521552
48.819444,63.511873
48.9025,63.492517
48.985833,63.482838
49.069167,63.463481
49.1525,63.453803
49.235833,63.434446
49.319167,63.405411
49.4025,63.41509
49.485833,63.395733
49.569167,63.366698
49.6525,63.357019
49.735833,63.318306
49.818889,63.318306
49.902222,63.308627
49.985556,63.289271
50.068889,63.269914
50.152222,63.260235
50.235556,63.250557
50.318889,63.211843
50.402222,63.202165
50.485556,63.192487
50.568889,63.192487
50.652222,63.17313
50.735556,63.144095
50.818611,63.134416
50.901944,63.11506
50.985278,63.095703
51.068611,63.095703
51.151944,63.086024
51.235278,63.056989
51.318611,63.047311
51.401944,63.037632
51.485278,63.018276
51.568611,62.989241
51.651944,62.979562
51.735278,62.979562
51.818333,62.960205
51.901667,62.950527
51.985,62.940849
52.068333,62.940849
52.151667,62.911813
52.235,62.911813
52.318333,62.892457
52.401667,62.892457
52.485,62.863421
52.568333,62.863421
52.651667,62.844065
52.734722,62.81503
52.818056,62.824708
52.901389,62.805351
52.984722,62.795673
53.068056,62.785994
53.151389,62.776316
53.234722,62.766638
53.318056,62.756959
53.401389,62.747281
53.484722,62.727924
53.568056,62.708567
53.651389,62.698889
53.734444,62.679532
53.817778,62.660175
53.901111,62.650497
53.984444,62.640819
54.067778,62.63114
54.151111,62.611783
54.234444,62.611783
54.317778,62.592427
54.401111,62.592427
54.484444,62.57307
54.567778,62.582748
54.651111,62.553713
54.734167,62.534356
54.8175,62.524678
54.900833,62.524678
54.984167,62.495643
55.0675,62.485964
55.150833,62.485964
55.234167,62.466608
55.3175,62.456929
55.400833,62.437572
55.484167,62.437572
55.5675,62.408537
55.650556,62.398859
55.733889,62.398859
55.817222,62.379502
55.900556,62.369824
55.983889,62.350467
56.067222,62.340789
56.150556,62.321432
56.233889,62.321432
56.317222,62.311753
56.400556,62.292397
56.483889,62.282718
56.567222,62.263361
56.650278,62.263361
56.733611,62.253683
56.816944,62.234326
56.900278,62.234326
56.983611,62.21497
57.066944,62.21497
57.150278,62.195613
57.233611,62.185934
57.316944,62.176256
57.400278,62.166578
57.483611,62.147221
57.566944,62.147221
57.65,62.127864
57.733333,62.098829
57.816667,62.098829
57.9,62.098829
57.983333,62.060115
58.066667,62.069794
58.15,62.050437
58.233333,62.03108
58.316667,62.03108
58.4,62.021402
58.483333,62.002045
58.566389,62.011723
58.649722,61.982688
58.733056,61.97301
58.816389,61.963331
58.899722,61.943975
58.983056,61.943975
59.066389,61.924618
59.149722,61.934296
59.233056,61.91494
59.316389,61.905261
59.399722,61.905261
59.483056,61.876226
59.566111,61.866548
59.649444,61.856869
59.732778,61.856869
59.816111,61.847191
59.899444,61.837512
59.982778,61.827834
60.066111,61.808477
60.149444,61.798799
60.232778,61.789121
60.316111,61.779442
60.399444,61.779442
60.4825,61.769764
60.565833,61.760085
60.649167,61.740729
60.7325,61.750407
60.815833,61.740729
60.899167,61.73105
60.9825,61.711693
61.065833,61.711693
61.149167,61.711693
61.2325,61.682658
61.315833,61.692337
61.399167,61.67298
61.482222,61.653623
61.565556,61.653623
61.648889,61.653623
61.732222,61.634266
61.815556,61.61491
61.898889,61.61491
61.982222,61.61491
62.065556,61.605231
62.148889,61.585874
62.232222,61.576196
62.315556,61.576196
62.398889,61.547161
62.481944,61.556839
62.565278,61.547161
62.648611,61.547161
62.731944,61.556839
62.815278,61.547161
62.898611,61.508447
62.981944,61.508447
63.065278,61.489091
63.148611,61.479412
63.231944,61.489091
63.315278,61.469734
63.398333,61.460055
63.481667,61.460055
63.565,61.460055
63.648333,61.43102
63.731667,61.43102
63.815,61.43102
63.898333,61.421342
63.981667,61.401985
64.065,61.392307
64.148333,61.401985
64.231667,61.392307
64.315,61.37295
64.398056,61.353593
64.481389,61.37295
64.564722,61.363271
64.648056,61.343915
64.731389,61.343915
64.814722,61.324558
64.898056,61.31488
64.981389,61.305201
65.064722,61.295523
65.148056,61.285844
65.231389,61.285844
65.314722,61.256809
65.397778,61.256809
65.481111,61.247131
65.564444,61.247131
65.647778,61.208417
65.731111,61.227774
65.814444,61.208417
65.897778,61.198739
65.981111,61.198739
66.064444,61.179382
66.147778,61.179382
66.231111,61.169704
66.314167,61.160025
66.3975,61.150347
66.480833,61.13099
66.564167,61.140669
66.6475,61.13099
66.730833,61.121312
66.814167,61.111633
66.8975,61.101955
66.980833,61.092277
67.064167,61.092277
67.1475,61.082598
67.230833,61.07292
67.313889,61.07292
67.397222,61.063241
67.480556,61.053563
67.563889,61.034206
67.647222,61.034206
67.730556,61.034206
67.813889,61.034206
67.897222,61.024528
67.980556,61.01485
68.063889,61.005171
68.147222,60.995493
68.230556,60.995493
68.313611,60.985814
68.396944,60.976136
68.480278,60.976136
68.563611,60.966458
68.646944,60.947101
68.730278,60.927744
68.813611,60.927744
68.896944,60.937422
68.980278,60.937422
69.063611,60.927744
69.146944,60.908387
69.23,60.898709
69.313333,60.879352
69.396667,60.88903
69.48,60.879352
69.563333,60.869674
69.646667,60.869674
69.73,60.869674
69.813333,60.869674
69.896667,60.850317
69.98,60.850317
70.063333,60.83096
70.146667,60.840639
70.229722,60.83096
70.313056,60.811603
70.396389,60.821282
70.479722,60.801925
70.563056,60.801925
70.646389,60.782568
70.729722,60.77289
70.813056,60.77289
70.896389,60.782568
70.979722,60.77289
71.063056,60.763211
71.146389,60.753533
71.229444,60.734176
71.312778,60.734176
71.396111,60.743855
71.479444,60.734176
71.562778,60.734176
71.646111,60.724498
71.729444,60.71482
71.812778,60.695463
71.896111,60.705141
71.979444,60.676106
72.062778,60.685784
72.145833,60.676106
72.229167,60.656749
72.3125,60.656749
72.395833,60.637392
72.479167,60.656749
72.5625,60.627714
72.645833,60.627714
72.729167,60.598679
72.8125,60.627714
72.895833,60.589
72.979167,60.589
73.0625,60.559965
73.145556,60.559965
73.228889,60.559965
73.312222,60.559965
73.395556,60.559965
73.478889,60.550287
73.562222,60.540609
73.645556,60.540609
73.728889,60.540609
73.812222,60.511573
73.895556,60.511573
73.978889,60.492217
74.062222,60.501895
74.145278,60.501895
74.228611,60.492217
74.311944,60.482538
74.395278,60.47286
74.478611,60.47286
74.561944,60.453503
74.645278,60.47286
74.728611,60.443825
74.811944,60.443825
74.895278,60.443825
74.978611,60.434146
75.061667,60.424468
75.145,60.41479
75.228333,60.405111
75.311667,60.405111
75.395,60.395433
75.478333,60.385754
75.561667,60.376076
75.645,60.376076
75.728333,60.366398
75.811667,60.366398
75.895,60.347041
75.978333,60.356719
76.061389,60.337362
76.144722,60.337362
76.228056,60.327684
76.311389,60.298649
76.394722,60.318006
76.478056,60.298649
76.561389,60.298649
76.644722,60.28897
76.728056,60.298649
76.811389,60.269614
76.894722,60.279292
76.978056,60.259935
77.061111,60.269614
77.144444,60.250257
77.227778,60.250257
77.311111,60.250257
77.394444,60.2309
77.477778,60.2309
77.561111,60.221222
77.644444,60.221222
77.727778,60.201865
77.811111,60.211543
77.894444,60.201865
77.9775,60.192187
78.060833,60.182508
78.144167,60.192187
78.2275,60.17283
78.310833,60.153473
78.394167,60.17283
78.4775,60.163151
78.560833,60.163151
78.644167,60.153473
78.7275,60.153473
78.810833,60.143795
78.894167,60.124438
78.977222,60.134116
79.060556,60.124438
79.143889,60.124438
79.227222,60.11476
79.310556,60.11476
79.393889,60.095403
79.477222,60.095403
79.560556,60.085724
79.643889,60.085724
79.727222,60.076046
79.810556,60.076046
79.893611,60.066368
79.976944,60.056689
80.060278,60.047011
80.143611,60.047011
80.226944,60.037332
80.310278,60.037332
80.393611,60.047011
80.476944,60.037332
80.560278,59.998619
80.643611,60.017976
80.726944,59.998619
80.810278,59.98894
80.893333,59.969584
80.976667,59.969584
81.06,59.969584
81.143333,59.959905
81.226667,59.950227
81.31,59.940549
81.393333,59.940549
81.476667,59.940549
81.56,59.940549
81.643333,59.921192
81.726667,59.93087
81.81,59.93087
81.893056,59.901835
81.976389,59.901835
82.059722,59.901835
82.143056,59.901835
82.226389,59.882478
82.309722,59.8728
82.393056,59.892157
82.476389,59.863121
82.559722,59.863121
82.643056,59.853443
82.726389,59.853443
82.809444,59.843765
82.892778,59.834086
82.976111,59.834086
83.059444,59.834086
83.142778,59.824408
83.226111,59.805051
83.309444,59.81473
83.392778,59.805051
83.476111,59.785694
83.559444,59.785694
83.642778,59.766338
83.726111,59.785694
83.809167,59.756659
83.8925,59.766338
83.975833,59.756659
84.059167,59.746981
84.1425,59.756659
84.225833,59.737302
84.309167,59.717946
84.3925,59.737302
84.475833,59.727624
84.559167,59.68891
84.6425,59.679232
84.725833,59.669554
84.808889,59.679232
84.892222,59.669554
84.975556,59.679232
85.058889,59.669554
85.142222,59.650197
85.225556,59.650197
85.308889,59.659875
85.392222,59.63084
85.475556,59.621162
85.558889,59.621162
85.642222,59.601805
85.725278,59.611483
85.808611,59.601805
85.891944,59.611483
85.975278,59.601805
86.058611,59.57277
86.141944,59.601805
86.225278,59.57277
86.308611,59.563091
86.391944,59.563091
86.475278,59.563091
86.558611,59.543735
86.641944,59.543735
86.725,59.543735
86.808333,59.524378
86.891667,59.5147
86.975,59.534056
87.058333,59.5147
87.141667,59.495343
87.225,59.505021
87.308333,59.5147
87.391667,59.495343
87.475,59.495343
87.558333,59.475986
87.641667,59.466308
87.724722,59.466308
87.808056,59.456629
87.891389,59.466308
87.974722,59.456629
88.058056,59.437272
88.141389,59.456629
88.224722,59.427594
88.308056,59.427594
88.391389,59.437272
88.474722,59.437272
88.558056,59.398559
88.641111,59.398559
88.724444,59.398559
88.807778,59.379202
88.891111,59.379202
88.974444,59.379202
89.057778,59.379202
89.141111,59.359845
89.224444,59.359845
89.307778,59.369524
89.391111,59.350167
89.474444,59.359845
89.557778,59.350167
89.640833,59.359845
89.724167,59.340489
89.8075,59.321132
89.890833,59.321132
89.974167,59.321132
90.0575,59.321132
90.140833,59.311453
90.224167,59.311453
90.3075,59.301775
90.390833,59.292097
90.474167,59.292097
90.5575,59.282418
90.640556,59.282418
90.723889,59.27274
90.807222,59.27274
90.890556,59.253383
90.973889,59.253383
91.057222,59.263061
91.140556,59.253383
91.223889,59.243705
91.307222,59.243705
91.390556,59.243705
91.473889,59.243705
91.556944,59.224348
91.640278,59.21467
91.723611,59.224348
91.806944,59.21467
91.890278,59.21467
91.973611,59.204991
92.056944,59.185634
92.140278,59.185634
92.223611,59.175956
92.306944,59.175956
92.390278,59.175956
92.473611,59.166278
92.556667,59.156599
92.64,59.146921
92.723333,59.146921
92.806667,59.146921
92.89,59.137242
92.973333,59.117886
93.056667,59.117886
93.14,59.117886
93.223333,59.098529
93.306667,59.098529
93.39,59.098529
93.473333,59.098529
93.556389,59.079172
93.639722,59.079172
93.723056,59.069494
93.806389,59.069494
93.889722,59.069494
93.973056,59.050137
94.056389,59.050137
94.139722,59.050137
94.223056,59.03078
94.306389,59.03078
94.389722,59.03078
94.472778,59.03078
94.556111,59.03078
94.639444,59.011423
94.722778,59.011423
94.806111,59.001745
94.889444,59.011423
94.972778,58.992067
95.056111,58.992067
95.139444,58.982388
95.222778,58.982388
95.306111,58.982388
95.389444,58.963031
95.4725,58.963031
95.555833,58.97271
95.639167,58.943675
95.7225,58.953353
95.805833,58.953353
