time,pressure
0.0,37.64998
0.083333,37.640302
0.166667,37.611267
0.25,37.601588
0.333056,37.582231
0.416389,37.572553
0.499722,37.553196
0.583056,37.53384
0.666389,37.524161
0.749722,37.504804
0.832778,37.475769
0.916111,37.456412
0.999444,37.427377
1.082778,37.417699
1.166111,37.398342
1.249444,37.388664
1.332778,37.369307
1.415833,37.34995
1.499167,37.330593
1.5825,37.311237
1.665833,37.301558
1.749167,37.282201
1.8325,37.262845
1.915556,37.253166
1.998889,37.243488
2.082222,37.224131
2.165556,37.214453
2.248889,37.204774
2.332222,37.185418
2.415556,37.166061
2.498611,37.156382
2.581944,37.146704
2.665278,37.127347
2.748611,37.10799
2.831944,37.098312
2.915278,37.088634
2.998611,37.069277
3.081667,37.069277
3.165,37.059599
3.248333,37.04992
3.331667,37.040242
3.415,37.030563
3.498333,37.030563
3.581389,37.030563
3.664722,37.040242
3.748056,37.020885
3.831389,37.030563
3.914722,37.040242
3.998056,37.059599
4.081389,37.088634
4.164444,37.10799
4.247778,37.137026
4.331111,37.166061
4.414444,37.195096
4.497778,37.224131
4.581111,37.253166
4.664444,37.29188
4.7475,37.320915
4.830833,37.359629
4.914167,37.388664
4.9975,37.398342
5.080833,37.427377
5.164167,37.466091
5.247222,37.485448
5.330556,37.524161
5.413889,37.53384
5.497222,37.553196
5.580556,37.582231
5.663889,37.59191
5.747222,37.620945
5.830278,37.640302
5.913611,37.669337
5.996944,37.698372
6.080278,37.698372
6.163611,37.688694
6.246944,37.698372
6.330278,37.688694
6.413333,37.679015
6.496667,37.679015
6.58,37.679015
6.663333,37.659659
6.746667,37.659659
6.83,37.669337
6.913056,37.64998
6.996389,37.659659
7.079722,37.64998
7.163056,37.64998
7.246389,37.640302
7.329722,37.640302
7.413056,37.640302
7.496111,37.640302
7.579444,37.640302
7.662778,37.630623
7.746111,37.640302
7.829444,37.630623
7.912778,37.630623
7.995833,37.640302
8.079167,37.630623
8.1625,37.630623
8.245833,37.640302
8.329167,37.640302
8.4125,37.630623
8.495833,37.640302
8.578889,37.630623
8.662222,37.630623
8.745556,37.630623
8.828889,37.640302
8.912222,37.630623
8.995556,37.630623
9.078611,37.640302
9.161944,37.630623
9.245278,37.64998
9.328611,37.64998
9.411944,37.64998
9.495278,37.64998
9.578611,37.64998
9.661667,37.659659
9.745,37.659659
9.828333,37.659659
9.911667,37.679015
9.995,37.688694
10.078333,37.679015
10.161667,37.688694
10.244722,37.698372
10.328056,37.717729
10.411389,37.746764
10.494722,37.756442
10.578056,37.785478
10.661389,37.814513
10.744444,37.83387
10.827778,37.862905
10.911111,37.89194
10.994444,37.911297
11.077778,37.95001
11.161111,37.969367
11.244167,37.988724
11.3275,38.017759
11.410833,38.037116
11.494167,38.056472
11.5775,38.075829
11.660833,38.085508
11.744167,38.104864
11.827222,38.104864
11.910556,38.124221
11.993889,38.1339
12.077222,38.153256
12.160556,38.143578
12.243889,38.153256
12.326944,38.1339
12.410278,38.124221
12.493611,38.104864
12.576944,38.085508
12.660278,38.056472
12.743611,38.037116
12.826944,38.017759
12.91,37.998402
12.993333,37.969367
13.076667,37.930653
13.16,37.920975
13.243333,37.882261
13.326667,37.872583
13.409722,37.853226
13.493056,37.814513
13.576389,37.804834
13.659722,37.775799
13.743056,37.766121
13.826389,37.746764
13.909722,37.727407
13.992778,37.698372
14.076111,37.688694
14.159444,37.659659
14.242778,37.630623
14.326111,37.620945
14.409444,37.601588
14.4925,37.59191
14.575833,37.562875
14.659167,37.553196
14.7425,37.53384
14.825833,37.514483
14.909167,37.495126
14.9925,37.475769
15.075556,37.456412
15.158889,37.417699
15.242222,37.398342
15.325556,37.378985
15.408889,37.359629
15.492222,37.34995
15.575278,37.340272
15.658611,37.311237
15.741944,37.29188
15.825278,37.272523
15.908611,37.262845
15.991944,37.253166
16.075278,37.23381
16.158333,37.214453
16.241667,37.195096
16.325,37.175739
16.408333,37.156382
16.491667,37.137026
16.575,37.137026
16.658056,37.146704
16.741389,37.146704
16.824722,37.137026
16.908056,37.137026
16.991389,37.146704
17.074722,37.146704
17.157778,37.146704
17.241111,37.156382
17.324444,37.156382
17.407778,37.156382
17.491111,37.156382
17.574444,37.156382
17.657778,37.175739
17.740833,37.156382
17.824167,37.166061
17.9075,37.166061
17.990833,37.166061
18.074167,37.156382
18.1575,37.166061
18.240556,37.146704
18.323889,37.156382
18.407222,37.146704
18.490556,37.146704
18.573889,37.137026
18.657222,37.127347
18.740278,37.098312
18.823611,37.098312
18.906944,37.078955
18.990278,37.04992
19.073611,37.030563
19.156944,37.011207
19.240278,37.001528
19.323333,36.982171
19.406667,36.962815
19.49,36.962815
19.573333,36.93378
19.656667,36.924101
19.74,36.914423
19.823056,36.924101
19.906389,36.914423
19.989722,36.914423
20.073056,36.914423
20.156389,36.904744
20.239722,36.904744
20.322778,36.904744
20.406111,36.904744
20.489444,36.904744
20.572778,36.924101
20.656111,36.93378
20.739444,36.93378
20.822778,36.953136
20.905833,36.982171
20.989167,37.001528
21.0725,37.011207
21.155833,37.040242
21.239167,37.059599
21.3225,37.069277
21.405556,37.098312
21.488889,37.10799
21.572222,37.127347
21.655556,37.146704
21.738889,37.156382
21.822222,37.185418
21.905278,37.204774
21.988611,37.214453
22.071944,37.243488
22.155278,37.253166
22.238611,37.272523
22.321944,37.301558
22.405278,37.320915
22.488333,37.340272
22.571667,37.359629
22.655,37.378985
22.738333,37.398342
22.821667,37.427377
22.905,37.456412
22.988056,37.495126
23.071389,37.543518
23.154722,37.582231
23.238056,37.620945
23.321389,37.659659
23.404722,37.698372
23.488056,37.737086
23.571111,37.766121
23.654444,37.814513
23.737778,37.83387
23.821111,37.872583
23.904444,37.920975
23.987778,37.959689
24.070833,37.988724
24.154167,38.027437
24.2375,38.056472
24.320833,38.075829
24.404167,38.095186
24.4875,38.1339
24.570556,38.153256
24.653889,38.172613
24.737222,38.182291
24.820556,38.221005
24.903889,38.221005
24.987222,38.211327
25.070556,38.221005
25.153611,38.211327
25.236944,38.201648
25.320278,38.201648
25.403611,38.201648
25.486944,38.201648
25.570278,38.19197
25.653333,38.172613
25.736667,38.162935
25.82,38.153256
25.903333,38.1339
25.986667,38.114543
26.07,38.104864
26.153333,38.095186
26.236389,38.075829
26.319722,38.066151
26.403056,38.046794
26.486389,38.037116
26.569722,38.027437
26.653056,38.00808
26.736111,37.979045
26.819444,37.959689
26.902778,37.930653
26.986111,37.911297
27.069444,37.89194
27.152778,37.872583
27.236111,37.862905
27.319167,37.853226
27.4025,37.83387
27.485833,37.814513
27.569167,37.795156
27.6525,37.785478
27.735833,37.766121
27.818889,37.737086
27.902222,37.727407
27.985556,37.698372
28.068889,37.679015
28.152222,37.659659
28.235556,37.64998
28.318889,37.640302
28.401944,37.640302
28.485278,37.630623
28.568611,37.611267
28.651944,37.611267
28.735278,37.601588
28.818611,37.582231
28.901667,37.572553
28.985,37.553196
29.068333,37.543518
29.151667,37.543518
29.235,37.543518
29.318333,37.543518
29.401667,37.553196
29.484722,37.553196
29.568056,37.553196
29.651389,37.562875
29.734722,37.543518
29.818056,37.543518
29.901389,37.553196
29.984722,37.543518
30.067778,37.53384
30.151111,37.53384
30.234444,37.524161
30.317778,37.524161
30.401111,37.514483
30.484444,37.504804
30.5675,37.485448
30.650833,37.504804
30.734167,37.485448
30.8175,37.475769
30.900833,37.475769
30.984167,37.466091
31.0675,37.446734
31.150556,37.417699
31.233889,37.378985
31.317222,37.34995
31.400556,37.311237
31.483889,37.29188
31.567222,37.253166
31.650556,37.224131
31.733611,37.185418
31.816944,37.146704
31.900278,37.10799
31.983611,37.078955
32.066944,37.040242
32.150278,37.001528
32.233333,36.972493
32.316667,36.93378
32.4,36.904744
32.483333,36.885388
32.566667,36.856352
32.65,36.836996
32.733333,36.817639
32.816389,36.798282
32.899722,36.778925
32.983056,36.769247
33.066389,36.74989
33.149722,36.730533
33.233056,36.720855
33.316111,36.711177
33.399444,36.701498
33.482778,36.701498
33.566111,36.69182
33.649444,36.69182
33.732778,36.69182
33.816111,36.69182
33.899167,36.701498
33.9825,36.711177
34.065833,36.711177
34.149167,36.720855
34.2325,36.740212
34.315833,36.740212
34.399167,36.759569
34.482222,36.778925
34.565556,36.798282
34.648889,36.80796
34.732222,36.817639
34.815556,36.846674
34.898889,36.856352
34.981944,36.875709
35.065278,36.895066
35.148611,36.914423
35.231944,36.93378
35.315278,36.953136
35.398611,36.972493
35.481944,37.030563
35.565,37.069277
35.648333,37.088634
35.731667,37.137026
35.815,37.175739
35.898333,37.224131
35.981667,37.253166
36.064722,37.301558
36.148056,37.340272
36.231389,37.369307
36.314722,37.417699
36.398056,37.466091
36.481389,37.514483
36.564722,37.524161
36.647778,37.572553
36.731111,37.611267
36.814444,37.640302
36.897778,37.669337
36.981111,37.698372
37.064444,37.756442
37.1475,37.785478
37.230833,37.804834
37.314167,37.853226
37.3975,37.882261
37.480833,37.901618
37.564167,37.901618
37.6475,37.911297
37.730556,37.920975
37.813889,37.930653
37.897222,37.95001
37.980556,37.959689
38.063889,37.969367
38.147222,37.969367
38.230278,37.979045
38.313611,37.998402
38.396944,38.017759
38.480278,38.027437
38.563611,38.027437
38.646944,38.046794
38.730278,38.046794
38.813333,38.037116
38.896667,38.046794
38.98,38.056472
39.063333,38.066151
39.146667,38.066151
39.23,38.066151
39.313056,38.085508
39.396389,38.075829
39.479722,38.066151
39.563056,38.066151
39.646389,38.056472
39.729722,38.046794
39.813056,38.037116
39.896111,38.027437
39.979444,38.027437
40.062778,38.027437
40.146111,38.017759
40.229444,38.017759
40.312778,38.027437
40.395833,38.017759
40.479167,38.00808
40.5625,38.00808
40.645833,38.00808
40.729167,37.998402
40.8125,37.998402
40.895833,37.988724
40.978889,37.979045
41.062222,37.969367
41.145556,37.969367
41.228889,37.959689
41.312222,37.95001
41.395556,37.959689
41.478611,37.959689
41.561944,37.959689
41.645278,37.969367
41.728611,37.988724
41.811944,38.027437
41.895278,38.056472
41.978611,38.085508
42.061667,38.114543
42.145,38.143578
42.228333,38.19197
42.311667,38.230683
42.395,38.25004
42.478333,38.269397
42.561389,38.25004
42.644722,38.25004
42.728056,38.25004
42.811389,38.25004
42.894722,38.240362
42.978056,38.230683
43.061389,38.230683
43.144444,38.240362
43.227778,38.221005
43.311111,38.221005
43.394444,38.221005
43.477778,38.201648
43.561111,38.19197
43.644167,38.19197
43.7275,38.162935
43.810833,38.1339
43.894167,38.104864
43.9775,38.075829
44.060833,38.037116
44.143889,37.998402
44.227222,37.959689
44.310556,37.911297
44.393889,37.882261
44.477222,37.853226
44.560556,37.83387
44.643889,37.804834
44.726944,37.766121
44.810278,37.727407
44.893611,37.698372
44.976944,37.669337
45.060278,37.630623
45.143611,37.601588
45.226667,37.572553
45.31,37.543518
45.393333,37.504804
45.476667,37.466091
45.56,37.446734
45.643333,37.388664
45.726667,37.369307
45.809722,37.330593
45.893056,37.301558
45.976389,37.272523
46.059722,37.243488
46.143056,37.214453
46.226389,37.185418
46.309444,37.156382
46.392778,37.127347
46.476111,37.098312
46.559444,37.069277
46.642778,37.040242
46.726111,37.011207
46.809167,36.982171
46.8925,36.953136
46.975833,36.914423
47.059167,36.885388
47.1425,36.856352
47.225833,36.836996
47.309167,36.836996
47.392222,36.80796
47.475556,36.788604
47.558889,36.769247
47.642222,36.759569
47.725556,36.740212
47.808889,36.730533
47.891944,36.730533
47.975278,36.740212
48.058611,36.769247
48.141944,36.788604
48.225278,36.798282
48.308611,36.817639
48.391944,36.846674
48.475,36.875709
48.558333,36.895066
48.641667,36.895066
48.725,36.93378
48.808333,36.972493
48.891667,37.001528
48.974722,37.030563
49.058056,37.069277
49.141389,37.098312
49.224722,37.137026
49.308056,37.156382
49.391389,37.185418
49.474722,37.204774
49.557778,37.23381
49.641111,37.262845
49.724444,37.29188
49.807778,37.320915
49.891111,37.330593
49.974444,37.369307
50.057778,37.369307
50.140833,37.378985
50.224167,37.388664
50.3075,37.369307
50.390833,37.388664
50.474167,37.369307
50.5575,37.388664
50.640556,37.388664
50.723889,37.378985
50.807222,37.369307
50.890556,37.369307
50.973889,37.378985
51.057222,37.388664
51.140556,37.398342
51.223611,37.40802
51.306944,37.40802
51.390278,37.417699
51.473611,37.427377
51.556944,37.417699
51.640278,37.446734
51.723333,37.456412
51.806667,37.456412
51.89,37.456412
51.973333,37.456412
52.056667,37.466091
52.14,37.466091
52.223333,37.485448
52.306389,37.495126
52.389722,37.514483
52.473056,37.524161
52.556389,37.53384
52.639722,37.53384
52.723056,37.553196
52.806389,37.562875
52.889444,37.572553
52.972778,37.59191
53.056111,37.601588
53.139444,37.611267
53.222778,37.611267
53.306111,37.620945
53.389167,37.630623
53.4725,37.659659
53.555833,37.669337
53.639167,37.679015
53.7225,37.698372
53.805833,37.698372
53.889167,37.717729
53.972222,37.717729
54.055556,37.746764
54.138889,37.766121
54.222222,37.785478
54.305556,37.804834
54.388889,37.853226
54.471944,37.89194
54.555278,37.959689
54.638611,37.998402
54.721944,38.037116
54.805278,38.056472
54.888611,38.095186
54.971944,38.143578
55.055,38.172613
55.138333,38.221005
55.221667,38.25004
55.305,38.269397
55.388333,38.279075
55.471667,38.279075
55.554722,38.30811
55.638056,38.327467
55.721389,38.337146
55.804722,38.366181
55.888056,38.375859
55.971389,38.385538
56.054722,38.404894
56.137778,38.395216
56.221111,38.395216
56.304444,38.395216
56.387778,38.375859
56.471111,38.346824
56.554444,38.337146
56.6375,38.298432
56.720833,38.279075
56.804167,38.259719
56.8875,38.211327
56.970833,38.201648
57.054167,38.162935
57.1375,38.1339
57.220556,38.095186
57.303889,38.056472
57.387222,38.017759
57.470556,37.988724
57.553889,37.959689
57.637222,37.920975
57.720278,37.89194
57.803611,37.853226
57.886944,37.83387
57.970278,37.804834
58.053611,37.766121
58.136944,37.746764
58.220278,37.70805
58.303333,37.679015
58.386667,37.659659
58.47,37.620945
58.553333,37.59191
58.636667,37.572553
58.72,37.543518
58.803056,37.524161
58.886389,37.495126
58.969722,37.466091
59.053056,37.427377
59.136389,37.40802
59.219722,37.398342
59.303056,37.378985
59.386111,37.340272
59.469444,37.311237
59.552778,37.282201
59.636111,37.253166
59.719444,37.224131
59.802778,37.214453
59.885833,37.175739
59.969167,37.146704
60.0525,37.117669
60.135833,37.088634
60.219167,37.088634
60.3025,37.069277
60.385833,37.040242
60.468889,37.011207
60.552222,37.001528
60.635556,36.99185
60.718889,36.99185
60.802222,37.011207
60.885556,37.020885
60.968611,37.030563
61.051944,37.04992
61.135278,37.059599
61.218611,37.088634
61.301944,37.098312
61.385278,37.117669
61.468333,37.127347
61.551667,37.10799
61.635,37.117669
61.718333,37.137026
61.801667,37.156382
61.885,37.166061
61.968333,37.166061
62.051389,37.166061
62.134722,37.175739
62.218056,37.175739
62.301389,37.166061
62.384722,37.166061
62.468056,37.166061
62.551111,37.156382
62.634444,37.137026
62.717778,37.117669
62.801111,37.088634
62.884444,37.04992
62.967778,37.030563
63.050833,37.011207
63.134167,36.982171
63.2175,36.962815
63.300833,36.953136
63.384167,36.914423
63.4675,36.904744
63.550833,36.885388
63.633889,36.875709
63.717222,36.866031
63.800556,36.856352
63.883889,36.846674
63.967222,36.856352
64.050556,36.836996
64.133611,36.836996
64.216944,36.827317
64.300278,36.836996
64.383611,36.836996
64.466944,36.836996
64.550278,36.836996
64.633333,36.856352
64.716667,36.856352
64.8,36.866031
64.883333,36.885388
64.966667,36.885388
65.05,36.895066
65.133056,36.924101
65.216389,36.93378
65.299722,36.93378
65.383056,36.972493
65.466389,36.99185
65.549722,37.001528
65.633056,37.011207
65.716111,37.030563
65.799444,37.04992
65.882778,37.04992
65.966111,37.069277
66.049444,37.078955
66.132778,37.098312
66.215833,37.10799
66.299167,37.127347
66.3825,37.137026
66.465833,37.166061
66.549167,37.175739
66.6325,37.204774
66.715556,37.224131
66.798889,37.243488
66.882222,37.29188
66.965556,37.330593
67.048889,37.359629
67.132222,37.398342
67.215556,37.446734
67.298611,37.485448
67.381944,37.524161
67.465278,37.562875
67.548611,37.601588
67.631944,37.630623
67.715278,37.679015
67.798333,37.717729
67.881667,37.746764
67.965,37.766121
68.048333,37.824191
68.131667,37.853226
68.215,37.882261
68.298056,37.911297
68.381389,37.959689
68.464722,37.998402
68.548056,38.027437
68.631389,38.056472
68.714722,38.095186
68.797778,38.1339
68.881111,38.153256
68.964444,38.143578
69.047778,38.143578
69.131111,38.1339
69.214444,38.1339
69.297778,38.114543
69.380833,38.114543
69.464167,38.114543
69.5475,38.114543
69.630833,38.114543
69.714167,38.104864
69.7975,38.095186
69.880556,38.075829
69.963889,38.056472
70.047222,38.046794
70.130556,38.037116
70.213889,38.017759
70.297222,38.017759
70.380278,37.998402
70.463611,37.988724
70.546944,37.979045
70.630278,37.969367
70.713611,37.959689
70.796944,37.95001
70.88,37.930653
70.963333,37.920975
71.046667,37.911297
71.13,37.89194
71.213333,37.882261
71.296667,37.882261
71.38,37.862905
71.463056,37.862905
71.546389,37.853226
71.629722,37.853226
71.713056,37.843548
71.796389,37.83387
71.879722,37.83387
71.962778,37.824191
72.046111,37.814513
72.129444,37.804834
72.212778,37.804834
72.296111,37.804834
72.379444,37.785478
72.462778,37.785478
72.545833,37.775799
72.629167,37.766121
72.7125,37.766121
72.795833,37.766121
72.879167,37.775799
72.9625,37.766121
73.045556,37.775799
73.128889,37.775799
73.212222,37.804834
73.295556,37.824191
73.378889,37.83387
73.462222,37.843548
73.545556,37.862905
73.628611,37.89194
73.711944,37.920975
73.795278,37.95001
73.878611,37.979045
73.961944,37.988724
74.045278,37.998402
74.128333,37.998402
74.211667,38.00808
74.295,38.037116
74.378333,38.066151
74.461667,38.104864
74.545,38.095186
74.628333,38.095186
74.711389,38.085508
74.794722,38.085508
74.878056,38.085508
74.961389,38.085508
75.044722,38.075829
75.128056,38.056472
75.211111,38.037116
75.294444,38.00808
75.377778,37.979045
75.461111,37.95001
75.544444,37.901618
75.627778,37.872583
75.711111,37.824191
75.794167,37.775799
75.8775,37.766121
75.960833,37.727407
76.044167,37.70805
76.1275,37.679015
76.210833,37.64998
76.294167,37.611267
76.377222,37.572553
76.460556,37.543518
76.543889,37.524161
76.627222,37.485448
76.710556,37.456412
76.793889,37.417699
76.876944,37.388664
76.960278,37.359629
77.043611,37.330593
77.126944,37.301558
77.210278,37.262845
77.293611,37.243488
77.376944,37.214453
77.46,37.185418
77.543333,37.156382
77.626667,37.137026
77.71,37.10799
77.793333,37.078955
77.876667,37.040242
77.96,37.020885
78.043056,36.99185
78.126389,36.972493
78.209722,36.962815
78.293056,36.924101
78.376389,36.914423
78.459722,36.895066
78.542778,36.895066
78.626111,36.885388
78.709444,36.856352
78.792778,36.836996
78.876111,36.836996
78.959444,36.827317
79.042778,36.817639
79.125833,36.80796
79.209167,36.80796
79.2925,36.817639
79.375833,36.827317
79.459167,36.856352
79.5425,36.885388
79.625556,36.904744
79.708889,36.914423
79.792222,36.962815
79.875556,36.99185
79.958889,37.030563
80.042222,37.059599
80.125556,37.088634
80.208611,37.117669
80.291944,37.137026
80.375278,37.185418
80.458611,37.204774
80.541944,37.243488
80.625278,37.262845
80.708333,37.29188
80.791667,37.320915
80.875,37.34995
80.958333,37.378985
81.041667,37.398342
81.125,37.40802
81.208333,37.446734
81.291389,37.475769
81.374722,37.504804
81.458056,37.504804
81.541389,37.504804
81.624722,37.504804
81.708056,37.514483
81.791111,37.504804
81.874444,37.514483
81.957778,37.514483
82.041111,37.514483
82.124444,37.524161
82.207778,37.524161
82.290833,37.514483
82.374167,37.514483
82.4575,37.524161
82.540833,37.53384
82.624167,37.53384
82.7075,37.543518
82.790833,37.543518
82.873889,37.543518
82.957222,37.553196
83.040556,37.553196
83.123889,37.562875
83.207222,37.562875
83.290556,37.562875
83.373611,37.572553
83.456944,37.572553
83.540278,37.582231
83.623611,37.59191
83.706944,37.601588
83.790278,37.601588
83.873611,37.611267
83.956667,37.611267
84.04,37.611267
84.123333,37.620945
84.206667,37.630623
84.29,37.630623
84.373333,37.640302
84.456389,37.640302
84.539722,37.659659
84.623056,37.669337
84.706389,37.679015
84.789722,37.679015
95.617222,36.972493
95.700556,36.982171
95.783889,36.982171
95.867222,36.982171
95.950556,37.001528
96.033889,37.001528
96.116944,37.030563
96.200278,37.040242
