time,pressure
0.0,84.160855
0.25,85.600999
0.5,86.851446
0.75,87.960589
1.0,88.991338
1.25,89.891428
1.5,90.711187
1.75,91.450616
2.0,92.101003
2.25,92.710742
2.5,93.291445
2.75,93.820853
3.0,94.360907
3.25,94.870958
3.5,95.351006
3.75,95.810729
4.0,96.251096
4.25,96.661459
4.5,97.061177
4.75,97.44057
5.0,97.811252
5.25,98.180966
5.5,98.510999
5.75,98.820708
6.0,99.141062
6.25,99.431414
6.5,99.731444
6.75,100.001471
7.0,100.241495
7.25,100.491197
7.5,100.720575
7.75,100.930596
8.0,101.190945
8.25,101.440647
8.5,101.811329
8.75,102.231371
9.0,102.62141
9.25,102.9708
9.5,103.27083
9.75,103.57086
10.0,103.831209
10.25,104.080911
10.5,104.311257
10.75,104.540634
11.0,104.761302
11.25,104.950998
11.5,105.151341
11.75,105.350715
12.0,105.530733
12.25,105.701073
12.5,105.860766
12.75,106.021428
13.0,106.181121
13.25,106.321458
13.5,106.460826
13.75,106.601163
14.0,106.721175
14.25,106.841187
14.5,106.961199
14.75,107.090889
15.0,107.210901
15.25,107.321235
15.5,107.441247
15.75,107.561259
16.0,107.660946
16.25,107.760634
16.5,107.840964
16.75,107.90097
17.0,107.981301
17.25,108.041307
17.5,108.101313
17.75,108.170997
18.0,108.231003
18.25,108.300688
18.5,108.37134
18.75,108.441024
19.0,108.510709
19.25,108.581361
19.5,108.651045
19.75,108.72073
20.0,108.791382
20.25,108.851388
20.5,108.930751
20.75,109.001403
21.0,109.071087
21.25,109.121415
21.5,109.181421
21.75,109.241427
22.0,109.290787
22.25,109.361439
22.5,109.410799
22.75,109.461126
23.0,109.530811
23.25,109.590817
23.5,109.641144
23.75,109.680826
24.0,109.731153
24.25,109.791159
24.5,109.851165
24.75,109.890847
25.0,109.941174
25.25,109.990534
25.5,110.031183
25.75,110.080543
26.0,110.121192
26.25,110.160874
26.5,110.200555
26.75,110.230558
27.0,110.260561
27.25,110.290564
27.5,110.331213
27.75,110.370895
28.0,110.400898
28.25,110.430901
28.5,110.470582
28.75,110.511231
29.0,110.541234
29.25,110.571237
29.5,110.590594
29.75,110.620597
30.0,110.6506
30.25,110.680603
30.5,110.721252
30.75,110.730931
31.0,110.760934
31.25,110.800615
31.5,110.830618
31.75,110.871267
32.0,110.90127
32.25,110.940952
32.5,110.970955
32.75,111.021282
33.0,111.060964
33.25,111.111292
33.5,111.160651
33.75,111.190654
34.0,111.220657
34.25,111.261307
34.5,111.300988
34.75,111.351316
35.0,111.381319
35.25,111.411322
35.5,111.451003
35.75,111.471328
36.0,111.520687
36.25,111.55069
36.5,111.580693
36.75,111.610696
37.0,111.651346
37.25,111.681349
37.5,111.72103
37.75,111.751033
38.0,111.781036
38.25,111.801361
38.5,111.841042
38.75,111.871045
39.0,111.910726
39.25,111.940729
39.5,111.970732
39.75,112.02106
40.0,112.071388
40.25,112.101391
40.5,112.131394
40.75,112.171075
41.0,112.210756
41.25,112.251406
41.5,112.291087
41.75,112.330768
42.0,112.371418
42.25,112.411099
42.5,112.461427
42.75,112.501108
43.0,112.551436
43.25,112.591117
43.5,112.630798
43.75,112.681126
44.0,112.731454
44.25,112.771135
44.5,112.821463
44.75,112.861144
45.0,112.910504
45.25,112.940507
45.5,113.000513
45.75,113.030516
46.0,113.060519
46.25,113.090522
46.5,113.150528
46.75,113.200855
47.0,113.240537
47.25,113.290864
47.5,113.311189
47.75,113.35087
48.0,113.390552
48.25,113.420555
48.5,113.470882
48.75,113.510564
49.0,113.530888
49.25,113.57057
49.5,113.611219
49.75,113.641222
50.0,113.671225
50.25,113.710906
50.5,113.731231
50.75,113.761234
51.0,113.800915
51.25,113.82124
51.5,113.840597
51.75,113.881246
52.0,113.900603
52.25,113.920927
52.5,113.960609
52.75,114.001258
53.0,114.020615
53.25,114.031261
53.5,114.061264
53.75,114.100945
54.0,114.130948
54.25,114.151273
54.5,114.17063
54.75,114.190954
55.0,114.220957
55.25,114.230636
55.5,114.260639
55.75,114.280963
56.0,114.320645
56.25,114.340969
56.5,114.361294
56.75,114.391297
57.0,114.400975
57.25,114.430978
57.5,114.440657
57.75,114.460981
58.0,114.47066
58.25,114.511309
58.5,114.520987
58.75,114.541312
59.0,114.541312
59.25,114.560669
59.5,114.571315
59.75,114.590672
60.0,114.610996
60.25,114.640999
60.5,114.640999
60.75,114.671002
61.0,114.691327
61.25,114.710684
61.5,114.731008
61.75,114.751333
62.0,114.761011
62.25,114.781336
62.5,114.800693
62.75,114.811339
63.0,114.830696
63.25,114.841342
63.5,114.85102
63.75,114.871345
64.0,114.890702
64.25,114.911026
64.5,114.931351
64.75,114.920705
65.0,114.950708
65.25,114.971032
65.5,115.001035
65.75,115.010714
66.0,115.031038
66.25,115.051363
66.5,115.061041
66.75,115.07072
67.0,115.091044
67.25,115.121047
67.5,115.121047
67.75,115.130726
68.0,115.141372
68.25,115.15105
68.5,115.181053
68.75,115.181053
69.0,115.190732
69.25,115.220735
69.5,115.220735
69.75,115.231381
70.0,115.261384
70.25,115.280741
70.5,115.301065
70.75,115.310744
71.0,115.32139
71.25,115.32139
71.5,115.351393
71.75,115.361071
72.0,115.37075
72.25,115.391074
72.5,115.391074
72.75,115.411399
73.0,115.421077
73.25,115.430756
73.5,115.441402
73.75,115.45108
74.0,115.460759
74.25,115.471405
74.5,115.471405
74.75,115.511086
75.0,115.520765
75.25,115.520765
75.5,115.541089
75.75,115.541089
76.0,115.561414
76.25,115.580771
76.5,115.591417
76.75,115.580771
77.0,115.610774
77.25,115.631098
77.5,115.631098
77.75,115.631098
78.0,115.651423
78.25,115.67078
78.5,115.681426
78.75,115.681426
79.0,115.700783
79.25,115.711429
79.5,115.711429
79.75,115.721107
80.0,115.730786
80.25,115.730786
80.5,115.75111
80.75,115.760789
81.0,115.771435
81.25,115.781113
81.5,115.801438
81.75,115.801438
82.0,115.801438
82.25,115.820795
82.5,115.820795
82.75,115.841119
83.0,115.861444
83.25,115.861444
83.5,115.871122
83.75,115.871122
84.0,115.880801
84.25,115.891447
84.5,115.910804
84.75,115.901125
85.0,115.92145
85.25,115.931128
85.5,115.940807
85.75,115.940807
86.0,115.940807
86.25,115.961131
86.5,115.97081
86.75,115.980488
87.0,116.000813
87.25,116.010491
87.5,116.030816
87.75,116.030816
88.0,116.030816
88.25,116.040494
88.5,116.05114
88.75,116.05114
89.0,116.070497
89.25,116.070497
89.5,116.090822
89.75,116.081143
90.0,116.111146
90.25,116.120825
90.5,116.111146
90.75,116.141149
91.0,116.160506
91.25,116.171152
91.5,116.190509
91.75,116.201155
92.0,116.201155
92.25,116.201155
92.5,116.340524
92.75,116.370527
93.0,116.370527
93.25,116.360849
93.5,116.340524
93.75,116.340524
94.0,116.340524
94.25,116.35117
94.5,116.370527
94.75,116.370527
95.0,116.360849
95.25,116.360849
95.5,116.360849
95.75,116.35117
96.0,116.340524
96.25,116.340524
96.5,116.360849
96.75,116.35117
97.0,116.35117
97.25,116.35117
97.5,116.35117
97.75,116.340524
98.0,116.360849
98.25,116.381173
98.5,116.360849
98.75,116.360849
99.0,116.370527
99.25,116.381173
99.5,116.390852
99.75,116.40053
100.0,116.420855
100.25,116.420855
100.5,116.450858
100.75,116.441179
101.0,116.510864
101.25,116.57087
101.5,116.57087
101.75,116.550545
102.0,116.540867
102.25,116.550545
102.5,116.550545
102.75,116.561191
103.0,116.57087
103.25,116.561191
103.5,116.540867
103.75,116.561191
104.0,116.550545
104.25,116.540867
104.5,116.540867
104.75,116.561191
105.0,116.57087
105.25,116.550545
105.5,116.640554
105.75,116.690882
106.0,116.690882
106.25,116.670557
106.5,116.640554
106.75,116.640554
107.0,116.6512
107.25,116.640554
107.5,116.660879
107.75,116.660879
108.0,116.660879
108.25,116.660879
108.5,116.640554
108.75,116.630876
109.0,116.6512
109.25,116.660879
109.5,116.750888
109.75,116.801215
110.0,116.801215
110.25,116.801215
110.5,116.801215
110.75,116.790569
111.0,116.790569
111.25,116.801215
111.5,116.810894
111.75,116.810894
112.0,116.801215
112.25,116.801215
112.5,116.810894
112.75,116.801215
113.0,116.820572
113.25,116.810894
113.5,116.810894
113.75,116.810894
114.0,116.790569
114.25,116.780891
114.5,116.801215
114.75,116.820572
115.0,116.831218
115.25,116.831218
115.5,116.840897
115.75,116.840897
116.0,116.840897
116.25,116.831218
116.5,116.840897
116.75,116.840897
117.0,116.850575
117.25,116.861221
117.5,116.861221
117.75,116.8709
118.0,116.8709
118.25,116.861221
118.5,116.861221
118.75,116.861221
119.0,116.861221
119.25,116.8709
119.5,116.910581
119.75,116.921227
120.0,116.910581
120.25,116.910581
120.5,116.900903
120.75,116.921227
121.0,116.910581
121.25,116.921227
121.5,116.940584
121.75,116.960909
122.0,116.940584
122.25,116.940584
122.5,116.940584
122.75,116.960909
123.0,116.970587
123.25,116.981233
123.5,116.981233
123.75,116.981233
124.0,117.00059
124.25,117.00059
124.5,117.011236
124.75,117.00059
125.0,117.020915
125.25,117.041239
125.5,117.030593
125.75,117.030593
126.0,117.041239
126.25,117.030593
126.5,117.020915
126.75,117.030593
127.0,117.030593
127.25,117.050918
127.5,117.071242
127.75,117.071242
128.0,117.060596
128.25,117.060596
128.5,117.060596
128.75,117.041239
129.0,117.210611
129.25,117.200933
129.5,117.191254
129.75,117.17093
130.0,117.150605
130.25,117.150605
130.5,117.161251
130.75,117.150605
131.0,117.17093
131.25,117.17093
131.5,117.17093
131.75,117.161251
132.0,117.161251
132.25,117.161251
132.5,117.161251
132.75,117.161251
133.0,117.161251
133.25,117.150605
133.5,117.150605
133.75,117.161251
134.0,117.161251
134.25,117.161251
134.5,117.17093
134.75,117.180608
135.0,117.180608
135.25,117.200933
135.5,117.200933
135.75,117.200933
136.0,117.210611
136.25,117.210611
136.5,117.210611
136.75,117.210611
137.0,117.230936
137.25,117.240614
137.5,117.240614
137.75,117.240614
138.0,117.260939
138.25,117.260939
138.5,117.281263
138.75,117.30062
139.0,117.30062
139.25,117.290942
139.5,117.290942
139.75,117.320945
140.0,117.341269
140.25,117.341269
140.5,117.350948
140.75,117.360626
141.0,117.360626
141.25,117.371272
141.5,117.380951
141.75,117.401275
142.0,117.410954
142.25,117.420632
142.5,117.420632
142.75,117.431278
143.0,117.431278
143.25,117.450635
143.5,117.461281
143.75,117.461281
144.0,117.47096
144.25,117.480638
144.5,117.480638
144.75,117.47096
145.0,117.510641
145.25,117.521287
145.5,117.521287
145.75,117.521287
146.0,117.540644
146.143611,117.540644
146.144167,117.540644
146.394167,117.530966
146.644167,117.55129
146.894167,117.55129
147.144167,117.55129
147.394167,117.570647
147.644167,117.590972
147.894167,117.60065
148.144167,117.611296
148.394167,117.620975
148.644167,117.630653
148.894167,117.641299
149.144167,117.641299
149.394167,117.641299
149.644167,117.650978
149.894167,117.650978
150.144167,117.650978
150.394167,117.650978
150.644167,117.660656
150.894167,117.660656
151.144167,117.660656
151.394167,117.671302
151.644167,117.671302
151.894167,117.680981
152.144167,117.690659
152.394167,117.701305
152.644167,117.701305
152.894167,117.720662
153.144167,117.740987
153.394167,117.761311
153.644167,117.761311
153.894167,117.750665
154.144167,117.750665
154.394167,117.750665
154.644167,117.761311
154.894167,117.77099
155.144167,117.780668
155.394167,117.791314
155.644167,117.800993
155.894167,117.821317
156.144167,117.821317
156.394167,117.821317
156.644167,117.810671
156.894167,117.830996
157.144167,117.810671
157.394167,117.830996
157.644167,117.85132
157.894167,117.85132
158.144167,117.870677
158.394167,117.870677
158.644167,117.870677
158.894167,117.891002
159.144167,117.891002
159.394167,117.870677
159.644167,117.891002
159.894167,117.891002
160.144167,117.891002
160.394167,117.90068
160.644167,117.911326
160.894167,117.911326
161.144167,117.911326
161.394167,117.921005
161.644167,117.930683
161.894167,117.951008
162.144167,117.960686
162.394167,117.971332
162.644167,118.001335
162.894167,118.001335
163.144167,118.001335
163.394167,117.971332
163.644167,117.981011
163.894167,118.001335
164.144167,118.001335
164.394167,118.011014
164.644167,118.031338
164.894167,118.031338
165.144167,118.031338
165.394167,118.041017
165.644167,118.031338
165.894167,118.050695
166.144167,118.061341
166.394167,118.07102
166.644167,118.07102
166.894167,118.080698
167.144167,118.101023
167.394167,118.101023
167.644167,118.110701
167.894167,118.101023
168.144167,118.101023
168.394167,118.110701
168.644167,118.121347
168.894167,118.140704
169.144167,118.140704
169.394167,118.15135
169.644167,118.15135
169.894167,118.15135
170.144167,118.15135
170.394167,118.15135
170.644167,118.15135
170.894167,118.170707
171.144167,118.181353
171.394167,118.20071
171.644167,118.20071
171.894167,118.20071
172.144167,118.211356
172.394167,118.221035
172.644167,118.221035
172.894167,118.230713
173.144167,118.230713
173.394167,118.221035
173.644167,118.241359
173.894167,118.251038
174.144167,118.251038
174.394167,118.260716
174.644167,118.271362
174.894167,118.271362
175.144167,118.281041
175.394167,118.281041
175.644167,118.301365
175.894167,118.341047
176.144167,118.350725
176.394167,118.380728
176.644167,118.421377
176.894167,118.431056
177.144167,118.421377
177.394167,118.421377
177.644167,118.421377
177.894167,118.431056
178.144167,118.421377
178.394167,118.410731
178.644167,118.421377
178.894167,118.431056
179.144167,118.440734
179.394167,118.45138
179.644167,118.45138
179.894167,118.461059
180.144167,118.470737
180.394167,118.481383
180.644167,118.521065
180.894167,118.530743
181.144167,118.551068
181.394167,118.601395
181.644167,118.631398
181.894167,118.650755
182.144167,118.650755
182.394167,118.661401
182.644167,118.67108
182.894167,118.680758
183.144167,118.691404
183.394167,118.701083
183.644167,118.710761
183.894167,118.710761
184.144167,118.721407
184.394167,118.731086
184.644167,118.731086
184.894167,118.731086
185.144167,118.731086
185.394167,118.740764
185.644167,118.740764
185.894167,118.731086
186.144167,118.731086
186.394167,118.731086
186.644167,118.731086
186.894167,118.731086
187.144167,118.740764
187.394167,118.75141
187.644167,118.761089
187.894167,118.761089
188.144167,118.770767
188.394167,118.770767
188.644167,118.781413
188.894167,118.770767
189.144167,118.770767
189.394167,118.781413
189.644167,118.781413
189.894167,118.781413
190.144167,118.791092
190.394167,118.791092
190.644167,118.791092
190.894167,118.80077
191.144167,118.80077
191.394167,118.80077
191.644167,118.811416
191.894167,118.811416
192.144167,118.821095
192.394167,118.821095
192.644167,118.830773
192.894167,118.830773
193.144167,118.830773
193.394167,118.830773
193.644167,118.841419
193.894167,118.841419
194.144167,118.851098
194.394167,118.851098
194.644167,118.860776
194.830833,118.860776
194.831111,118.860776
194.831389,118.860776
195.257222,118.871422
195.507222,118.890779
195.757222,118.901425
196.007222,118.911104
196.257222,118.950785
196.507222,119.031116
196.757222,119.091122
197.007222,119.151128
197.257222,119.211134
197.507222,119.250815
197.757222,119.310821
198.007222,119.340824
198.257222,119.370827
198.507222,119.40083
198.651667,119.410509
198.651944,119.410509
198.901944,119.430833
199.151944,119.451158
199.401944,119.460836
199.651944,119.470515
199.901944,119.490839
200.151944,119.530521
200.401944,119.550845
200.651944,119.560524
200.901944,119.580848
201.151944,119.590527
201.401944,119.62053
201.651944,119.640854
201.901944,119.661179
202.151944,119.680536
202.401944,119.710539
202.651944,119.721185
202.901944,119.740542
203.151944,119.751188
203.401944,119.770545
203.651944,119.781191
203.901944,119.790869
204.151944,119.811194
204.401944,119.820872
204.651944,119.850875
204.901944,119.8712
205.151944,119.880878
205.401944,119.910881
205.651944,119.92056
205.901944,119.940884
206.151944,119.961209
206.401944,119.961209
206.651944,119.970887
206.901944,120.00089
207.151944,120.010569
207.401944,120.021215
207.651944,120.030893
207.901944,120.040572
208.151944,120.060896
208.401944,120.070575
208.651944,120.081221
208.901944,120.090899
209.151944,120.111224
209.401944,120.130581
209.651944,120.141227
209.901944,120.150905
210.151944,120.150905
210.401944,120.17123
210.651944,120.17123
210.901944,120.180908
211.151944,120.201233
211.401944,120.210911
211.651944,120.231236
211.901944,120.22059
212.151944,120.22059
212.401944,120.231236
212.651944,120.231236
212.901944,120.231236
213.151944,120.250593
213.401944,120.250593
213.651944,120.261239
213.901944,120.261239
214.151944,120.270917
214.401944,120.280596
214.651944,120.291242
214.901944,120.310599
215.151944,120.321245
215.401944,120.330923
215.651944,120.340602
215.901944,120.351248
216.151944,120.340602
216.401944,120.340602
216.651944,120.360926
216.901944,120.360926
217.151944,120.340602
217.401944,120.370605
217.651944,120.400608
217.901944,120.420932
218.151944,120.420932
218.401944,120.430611
218.651944,120.441257
218.901944,120.450935
219.151944,120.460614
219.401944,120.47126
219.651944,120.47126
219.901944,120.47126
220.151944,120.47126
220.401944,120.480938
220.651944,120.490617
220.901944,120.490617
221.151944,120.490617
221.401944,120.52062
221.651944,120.531266
221.901944,120.540944
222.151944,120.550623
222.401944,120.570947
222.651944,120.570947
222.901944,120.570947
223.151944,120.580626
223.401944,120.591272
223.651944,120.591272
223.901944,120.60095
224.151944,120.621275
224.401944,120.640632
224.651944,120.651278
224.901944,120.660956
225.151944,120.681281
225.401944,120.690959
225.651944,120.690959
225.901944,120.711284
226.151944,120.711284
226.401944,120.730641
226.651944,120.741287
226.901944,120.750965
227.151944,120.760644
227.401944,120.77129
227.651944,120.780968
227.901944,120.801293
228.151944,120.810971
228.401944,120.810971
228.651944,120.831296
228.901944,120.831296
229.151944,120.840974
229.401944,120.850653
229.651944,120.861299
229.901944,120.870977
230.151944,120.880656
230.401944,120.891302
230.651944,120.891302
230.901944,120.90098
231.151944,120.90098
231.401944,120.921305
231.651944,120.930983
231.901944,120.940662
232.151944,120.951308
232.401944,120.951308
232.651944,120.960986
232.901944,120.960986
233.151944,120.970665
233.401944,120.981311
233.651944,120.981311
233.901944,120.981311
234.151944,120.990989
234.401944,121.011314
234.651944,121.020992
234.901944,121.020992
235.151944,121.030671
235.401944,121.041317
235.651944,121.041317
235.901944,121.050995
236.151944,121.060674
236.401944,121.060674
236.651944,121.07132
236.901944,121.07132
237.151944,121.07132
237.401944,121.080998
237.651944,121.080998
237.901944,121.090677
238.151944,121.101323
238.401944,121.111001
238.651944,121.111001
238.901944,121.12068
239.151944,121.12068
239.401944,121.141004
239.651944,121.141004
239.901944,121.150683
240.151944,121.150683
240.401944,121.161329
240.651944,121.161329
240.901944,121.161329
241.151944,121.161329
241.401944,121.171007
241.651944,121.180686
241.901944,121.180686
242.151944,121.180686
242.401944,121.180686
242.651944,121.191332
242.901944,121.191332
243.151944,121.20101
243.276111,121.20101
243.276389,121.20101
243.276667,121.20101
243.526667,121.210689
243.776667,121.210689
244.026667,121.210689
244.276667,121.221335
244.526667,121.231013
244.776667,121.240692
245.026667,121.240692
245.276667,121.240692
245.526667,121.261016
245.776667,121.251338
246.026667,121.261016
246.276667,121.270695
246.526667,121.281341
246.776667,121.281341
247.026667,121.291019
247.276667,121.300698
247.526667,121.300698
247.776667,121.311344
248.026667,121.321022
248.276667,121.330701
248.526667,121.341347
248.776667,121.341347
249.026667,121.351025
249.276667,121.351025
249.526667,121.351025
249.776667,121.351025
250.026667,121.37135
250.276667,121.37135
250.526667,121.381028
250.776667,121.381028
251.026667,121.381028
251.276667,121.381028
251.526667,121.390707
251.776667,121.401353
252.026667,121.411031
252.276667,121.42071
252.526667,121.431356
252.776667,121.431356
253.026667,121.441034
253.276667,121.441034
253.526667,121.450713
253.776667,121.461359
254.026667,121.450713
254.276667,121.461359
254.526667,121.461359
254.776667,121.471037
255.026667,121.480716
255.276667,121.480716
255.526667,121.491362
255.776667,121.510719
256.026667,121.510719
256.276667,121.531043
256.526667,121.521365
256.776667,121.531043
257.026667,121.540722
257.276667,121.540722
257.526667,121.531043
257.776667,121.551368
258.026667,121.551368
258.276667,121.561046
258.526667,121.561046
258.776667,121.570725
259.026667,121.561046
259.276667,121.570725
259.526667,121.581371
259.776667,121.581371
260.026667,121.591049
260.276667,121.611374
260.526667,121.600728
260.776667,121.611374
261.026667,121.621052
261.276667,121.621052
261.526667,121.630731
