time,pressure
0.0,142.932248
0.172222,142.845142
0.497778,139.980333
0.926111,135.925079
1.131667,134.241035
1.399444,132.305353
1.608889,130.824556
1.843611,129.27601
2.118056,127.708108
2.483333,125.617571
2.7,124.485197
2.960278,123.091506
3.236389,121.54296
3.540278,119.9557
3.743889,118.968502
3.969722,117.82645
4.216389,116.742468
4.544444,115.32942
4.763611,114.448684
5.4075,111.835513
5.4925,111.487091
5.78,110.403109
6.405,108.089968
6.635833,107.315696
6.95,106.193
7.149722,105.505833
7.480556,104.479921
7.718056,103.715327
8.005556,102.863626
8.221111,102.215173
8.5625,101.160226
8.736944,100.64727
9.011944,99.805249
9.234722,99.156795
9.531111,98.305095
9.785,97.627606
10.077778,96.833976
10.378056,96.02099
10.582778,95.508034
10.808333,94.975721
11.124444,94.182092
11.740556,92.575475
11.940833,92.091555
12.164444,91.568921
12.472778,90.823683
12.749167,90.184908
13.204444,89.13964
13.385,89.13964
13.518611,88.500864
13.753056,88.026622
13.9925,87.533023
14.361389,86.778107
14.409444,86.778107
14.583611,86.294187
14.683056,86.294187
14.786667,85.858658
15.109722,85.200526
15.640556,84.164936
15.691111,84.164936
15.830278,83.816513
15.942778,83.816513
16.033889,83.448734
16.245278,83.042241
16.557778,82.480893
16.761111,82.064721
16.961111,82.064721
16.980556,81.648549
17.245833,81.648549
17.3725,80.91299
17.582778,80.545211
17.925556,79.916114
18.145,79.567691
18.358889,79.567691
18.519167,78.938594
18.678889,78.938594
18.793889,78.483709
19.095,78.009467
19.437778,77.448119
19.679167,77.090018
19.681389,77.090018
19.933333,76.71256
19.935278,76.71256
20.207222,76.296388
20.578889,75.744719
20.800833,75.454366
20.981389,75.454366
21.077222,75.318869
21.233611,75.318869
21.406667,74.680093
21.7125,74.099389
21.919722,73.702574
22.224722,73.17994
22.362778,73.17994
22.559722,72.62827
22.671111,72.62827
22.794722,72.260491
23.118889,71.766892
23.437778,71.282971
23.658056,70.963584
23.672778,70.963584
23.931111,70.566769
23.933611,70.566769
24.18,70.140919
24.481667,69.676355
24.671111,69.395681
24.895278,69.047258
24.976667,69.047258
25.105833,68.727871
25.35,68.727871
25.413056,68.272985
25.700556,67.866492
25.924167,67.566461
26.196944,67.189003
26.3525,67.189003
26.546944,66.676048
26.648333,66.676048
26.756667,66.366338
26.966389,66.095343
27.150278,65.843704
27.526944,65.37914
27.653611,65.37914
27.827222,65.030718
27.904167,65.030718
28.040833,64.740365
28.2375,64.508083
28.543611,64.10159
28.750278,63.840273
28.961944,63.840273
28.984167,63.559599
29.224444,63.559599
29.503056,62.862754
29.764167,62.533688
29.991389,62.262692
30.237222,61.952983
30.243889,61.952983
30.501111,61.952983
30.551111,61.575525
30.811389,61.227102
31.085278,60.839966
31.388333,60.472186
31.511111,60.472186
31.596667,60.230226
31.766667,60.230226
31.824167,59.988265
32.040556,59.746305
32.242222,59.53338
32.515833,59.223671
32.713611,59.010746
32.815278,59.010746
32.920833,58.768786
33.083611,58.768786
33.1425,58.546182
33.451944,58.217116
33.745833,57.868693
33.963889,57.617055
34.088056,57.617055
34.241389,57.297667
34.344444,57.297667
34.545278,56.97828
34.7475,56.765355
34.953611,56.533073
35.143611,56.329826
35.360278,56.329826
35.465,55.971725
35.626111,55.971725
35.658611,55.7588
35.873611,55.555553
36.089444,55.323271
36.482778,54.926456
36.627778,54.926456
36.762222,54.665139
36.917778,54.665139
37.040278,54.442536
37.408333,54.142505
37.618333,53.948937
37.8525,53.736012
37.941389,53.736012
38.057778,53.561801
38.231111,53.561801
38.446667,53.232735
38.725,53.000453
38.987222,52.758492
39.251111,52.526211
39.356667,52.526211
39.570556,52.293929
39.608056,52.293929
39.793611,52.129396
39.997778,51.974541
40.196111,51.80033
40.5175,51.548691
40.669167,51.548691
40.826111,51.316409
40.9575,51.316409
41.002222,51.200268
41.218889,51.026057
41.766944,50.629242
41.971111,50.629242
42.056944,50.387282
42.353333,50.387282
42.395,50.145321
42.646944,49.961432
42.928889,49.709793
43.135278,49.535582
43.388333,49.535582
43.444167,49.245229
43.649444,49.245229
43.728333,49.884004
43.943056,50.484066
44.116944,50.909916
44.376389,51.539013
44.639722,52.061647
44.658611,52.061647
44.912222,52.477818
44.917778,52.477818
45.074167,52.681065
45.433611,53.07788
45.716667,53.31984
45.923611,53.31984
45.949722,53.484373
46.157222,53.639228
46.191111,53.639228
46.571667,53.890867
46.853889,54.036043
47.089167,54.132827
47.246944,54.132827
47.546667,54.132827
47.741111,54.278003
47.967222,54.29736
48.230556,54.336073
48.560833,54.423179
48.563056,54.423179
48.831944,54.471571
48.833889,54.471571
49.083889,54.519963
49.474167,54.529642
49.6875,55.449091
49.872222,55.449091
49.977778,55.071633
50.138611,55.071633
50.222778,54.945813
50.641111,54.858708
50.909444,54.858708
51.153333,54.858708
51.175556,54.9071
51.413611,54.9071
51.558056,93.330392
51.817778,112.542037
52.086944,101.508649
52.379722,94.249841
52.451944,94.249841
52.5925,90.388155
52.730833,90.388155
52.880833,87.184601
53.488611,82.538963
53.572778,81.996972
53.740556,81.996972
53.792778,80.651673
53.993333,79.470907
53.995278,79.470907
54.518333,76.935163
54.7675,76.170569
55.04,76.170569
55.063889,75.30919
55.350556,75.30919
55.374167,74.476847
55.645,73.809036
55.890833,73.267045
56.182778,72.696019
56.389444,72.696019
56.609444,71.912068
56.688889,71.912068
56.817222,71.573323
57.133889,71.070046
57.531667,70.528055
57.723611,70.528055
57.778611,70.189311
57.976667,70.189311
58.058889,69.811853
58.419722,69.356967
58.661389,69.085972
58.935278,68.785941
59.022222,68.785941
59.158889,68.553659
59.374722,68.553659
59.461111,68.302021
59.729722,67.895527
59.989167,67.721316
60.372778,67.440642
60.379167,67.440642
60.598056,67.276109
60.649722,67.276109
60.872222,67.082541
61.136667,66.879294
61.519167,66.608299
61.652778,66.608299
61.749167,66.434087
61.926667,66.434087
62.005556,66.250197
62.254722,66.085664
62.587222,65.853383
62.777222,65.698528
62.935278,65.698528
62.999444,65.533995
63.193889,65.533995
63.373889,65.243643
63.573611,65.098467
63.771389,64.95329
63.976667,64.808114
64.210278,64.643581
64.213056,64.643581
64.502222,64.643581
64.5725,64.391942
64.973056,64.149982
65.170556,64.004806
65.4825,63.762846
65.542778,63.762846
65.751111,63.578956
65.815,63.578956
65.974722,63.395066
66.169167,63.259568
66.480556,63.046643
66.753889,62.862754
66.816667,62.862754
66.973611,62.717577
67.076944,62.717577
67.178889,62.591758
67.486667,62.417547
67.732222,62.253014
68.021389,62.088481
68.100278,62.088481
68.366111,61.885234
68.368056,61.885234
68.584722,61.749736
68.913333,61.556168
69.140556,61.440027
69.504167,61.246459
69.730833,61.12064
69.975278,60.975463
70.213056,60.830287
70.528611,60.636719
70.710278,60.539935
70.851111,60.472186
70.968333,60.38508
71.444722,60.123763
71.654167,60.017301
72.191667,59.601129
72.598056,59.29142
72.835,59.126887
73.063333,58.962354
73.455556,58.701037
73.674722,58.565539
73.897222,58.43972
74.098333,58.43972
74.125,58.323579
74.492778,58.130011
74.686667,58.033226
74.926389,57.868693
75.1,57.868693
75.541944,57.375094
75.993611,57.03635
76.220556,56.85246
76.550833,56.649214
76.808611,56.494359
77.085,56.320148
77.604444,56.039474
77.896111,55.874941
78.08,55.787835
78.426389,55.623302
78.660278,55.439412
78.847222,55.439412
78.906667,55.245844
79.124444,55.090989
79.503889,54.839351
79.716667,54.72321
79.895278,54.72321
80.012778,54.548998
80.168056,54.548998
80.393333,54.307038
80.716944,54.132827
81.036389,53.977972
81.230278,53.977972
81.409722,53.755369
81.530556,53.755369
81.606944,53.648906
82.0475,53.416624
82.408611,53.213378
82.550556,53.213378
82.630278,53.097237
82.811944,53.097237
82.923889,52.952061
83.204444,52.787528
83.533611,52.622995
83.704722,52.516532
83.850556,52.516532
83.925556,52.41007
84.127778,52.41007
84.15,52.28425
84.502222,52.148753
84.782778,51.993898
84.994722,51.8584
85.196111,51.8584
85.221111,51.819687
85.493333,51.819687
85.573611,51.645475
85.815278,51.509977
86.065833,51.384158
86.413611,51.24866
86.507778,51.24866
86.62,51.132519
86.762222,51.132519
86.901667,50.987343
87.200278,50.851845
87.530556,50.706669
87.752778,50.609885
87.793333,50.609885
88.065,50.609885
88.094444,50.474387
88.463889,50.309854
88.666944,50.232427
88.885556,50.145321
89.113611,50.145321
89.226944,50.009824
89.422778,50.009824
89.567222,49.874326
89.841667,49.767863
90.148611,49.661401
90.433333,49.661401
90.518333,49.535582
90.710278,49.535582
90.734167,49.448476
90.961389,49.342013
91.226667,49.245229
91.620556,49.090375
91.735278,49.090375
91.901389,48.983912
92.044722,48.983912
92.143611,48.906485
92.460833,48.780665
92.703333,48.69356
93.028056,48.577419
93.089722,48.577419
93.409444,48.577419
93.431111,48.403207
93.688333,48.287067
93.975556,48.161247
94.192222,48.074141
94.409444,48.074141
94.511667,47.928965
94.720556,47.928965
94.794722,47.793468
95.051111,47.687005
95.418889,47.541829
95.641944,47.464402
95.725278,47.464402
95.942222,47.338582
96.008611,47.338582
96.146389,47.270833
96.438056,47.174049
96.671944,47.086944
96.903611,46.990159
97.010556,46.990159
97.191111,46.903054
97.429167,46.903054
97.548333,46.777234
97.771944,46.719164
98.0025,46.661093
98.2425,46.593345
98.4525,46.593345
98.733889,46.448168
98.735833,46.448168
98.970278,46.361063
99.273056,46.273957
99.621944,46.157816
99.737778,46.157816
100.041111,46.157816
100.183056,45.973926
100.540556,45.867464
100.766667,45.809393
101.041111,45.809393
101.345833,45.809393
101.603333,45.557755
101.779722,45.499684
102.132222,45.354508
102.361389,45.354508
102.488889,45.248045
102.634444,45.248045
102.740833,45.16094
102.986667,45.073834
103.2475,44.986728
103.565556,44.899623
103.639167,44.899623
103.7775,44.822195
103.921389,44.822195
104.05,44.725411
104.503889,44.560878
104.798611,44.444737
104.935,44.444737
105.111111,44.357632
105.207222,44.357632
105.410278,44.280204
105.6825,44.222134
105.914444,44.154385
106.138056,44.105993
106.209167,44.105993
106.483333,44.105993
106.508889,44.009209
106.741111,43.951138
107.028333,43.864033
107.251944,43.786605
107.514167,43.786605
107.564167,43.709178
107.758889,43.651108
107.765833,43.651108
108.387222,43.467218
108.614444,43.380112
108.817222,43.380112
108.865833,43.293006
109.135556,43.293006
109.156944,43.205901
109.473889,43.08976
109.780556,43.002654
110.037222,42.915548
110.152222,42.915548
110.361389,42.789729
110.443056,42.789729
110.575556,42.72198
110.760278,42.66391
110.973056,42.596161
111.201111,42.518734
111.4575,42.518734
111.588889,42.392914
111.791111,42.392914
111.867778,42.305808
112.158056,42.209024
112.474722,42.11224
112.807222,42.11224
112.988056,41.967064
113.078056,41.967064
113.365556,41.831566
113.574167,41.763817
113.768889,41.696069
113.996389,41.637998
114.116389,41.637998
114.235,41.560571
114.425833,41.560571
114.483056,41.5025
115.033611,41.367003
115.234722,41.318611
115.449167,41.318611
115.555,41.105686
115.762778,41.008901
116.003333,40.950831
116.268056,40.873404
116.583333,40.815333
116.773889,40.757263
116.982778,40.708871
117.265,40.631443
117.581111,40.554016
117.875833,40.486267
118.156389,40.418518
118.491111,40.321734
118.729167,40.263664
119.0225,40.195915
119.378056,40.118488
119.600278,40.079774
119.839722,40.021703
120.022222,39.98299
120.229167,39.944276
120.513056,39.847492
120.776667,39.789422
120.978889,39.74103
121.149722,39.692637
121.511667,39.595853
121.724167,39.547461
121.994167,39.489391
122.261111,39.43132
122.575,39.363572
122.783333,39.324858
123.095833,39.247431
123.393333,39.18936
123.690833,39.150646
123.91,39.082898
124.122778,39.053862
124.467778,38.986113
124.806944,38.918365
125.081944,38.850616
125.673333,38.715118
125.839167,38.666726
126.083333,38.618334
126.534444,38.502193
126.8225,38.415087
127.0425,38.357017
127.389722,38.260233
127.613611,38.202162
127.819444,38.144092
128.059444,38.086021
128.524444,37.960202
128.828889,37.873096
129.201389,37.776312
129.610556,37.689206
129.892778,37.611779
130.215556,37.524673
130.719722,37.398854
131.0325,37.30207
131.426111,37.205286
131.701944,37.147215
131.978889,37.089145
132.272222,37.011718
132.6975,36.914934
133.015,36.827828
133.386944,36.731044
133.668056,36.663295
133.910278,36.605224
134.569444,36.440691
134.862222,36.353586
135.163889,36.276158
135.562222,36.179374
135.836667,36.121304
136.200556,36.02452
136.575,35.947092
136.957222,35.850308
137.415,35.763203
137.71,35.705132
138.4075,35.559956
138.663889,35.511564
138.948333,35.463172
139.236944,35.395423
139.608056,35.308317
139.85,35.269604
140.12,35.221212
140.488333,35.153463
140.813333,35.095392
141.103056,35.047
141.538889,34.969573
141.848056,34.911502
142.173333,34.911502
142.201944,34.834075
142.606111,34.756648
142.930278,34.688899
143.194722,34.688899
143.231944,34.630829
143.606667,34.56308
143.887222,34.505009
144.223889,34.456617
144.687778,34.359833
145.031111,34.301763
145.181667,34.301763
145.448889,34.234014
145.734722,34.204978
146.015,34.166265
146.189444,34.166265
146.381389,34.117873
146.488333,34.117873
146.678611,34.088837
146.936111,34.040445
147.213611,33.992053
147.501667,33.992053
147.595556,33.95334
147.775,33.95334
147.893611,33.914626
148.242222,33.846877
148.713611,33.798485
148.775833,33.798485
149.024722,33.759772
149.026944,33.759772
149.752222,33.662987
149.951389,33.624274
150.036111,33.624274
150.378056,33.624274
150.408333,33.556525
150.7,33.517811
150.9775,33.469419
151.4,33.40167
151.406111,33.40167
151.708611,33.333921
152.010833,33.285529
152.532222,33.198424
152.706111,33.198424
153.146667,33.10164
153.540833,33.033891
153.791111,32.97582
154.102222,32.937107
154.501944,32.859679
154.774722,32.811287
155.051389,32.753217
155.493889,32.685468
155.761111,32.637076
156.044167,32.598362
156.389167,32.540292
156.705278,32.4919
156.9675,32.462864
157.259722,32.404794
157.639444,32.337045
157.927222,32.288653
158.266111,32.240261
158.660833,32.191869
158.987778,32.143477
159.455833,32.06605
159.757778,32.017658
160.066389,31.978944
160.482778,31.911195
160.756389,31.843446
161.051667,31.727305
161.461111,31.649878
162.113611,31.524059
162.485833,31.465988
162.744444,31.388561
163.038333,31.320812
163.370278,31.291777
163.643333,31.253063
163.931944,31.214349
164.053333,31.214349
164.395556,31.185314
164.730278,31.156279
165.025278,31.156279
165.4125,31.078852
166.114167,31.03046
166.542222,30.991746
166.835833,30.953032
167.112222,30.943354
167.824722,30.885283
168.096111,30.865927
168.487778,30.827213
168.781111,30.807856
169.033889,30.778821
169.433056,30.749786
169.739167,30.711072
170.039444,30.701394
170.405556,30.672358
170.707778,30.633645
171.023611,30.60461
171.41,30.585253
171.759444,30.556217
172.075,30.536861
172.484167,30.517504
172.820278,30.517504
173.083889,30.517504
173.728333,30.47879
173.881667,30.469112
174.158333,30.459433
174.482222,30.459433
174.524722,30.430398
174.843333,30.42072
175.113611,30.401363
175.4975,30.382006
175.780833,30.352971
175.783056,30.352971
176.140833,30.333614
176.604444,30.304579
177.153056,30.304579
177.178333,30.265865
177.59,30.23683
177.875278,30.227151
178.419722,30.227151
178.601111,30.169081
178.891389,30.149724
179.259722,30.120689
179.650556,30.091654
179.716944,30.091654
180.006667,30.05294
180.265,30.033583
180.655278,30.004548
180.944444,29.975513
181.016667,29.975513
181.200556,29.956156
181.593889,29.927121
181.868056,29.907764
182.126667,29.888407
182.393333,29.888407
182.487222,29.859372
182.760278,29.840015
183.131111,29.820658
183.508611,29.791623
183.724444,29.791623
183.861667,29.762588
184.124722,29.752909
184.478333,29.723874
184.771389,29.694839
185.048611,29.694839
185.146667,29.694839
185.568611,29.636768
185.925833,29.62709
186.223611,29.598055
186.395833,29.598055
186.678889,29.578698
186.98,29.549663
187.253889,29.530306
187.626667,29.501271
187.682222,29.501271
187.955556,29.481914
188.451944,29.423843
188.740833,29.520627
188.991111,29.520627
189.017222,29.830337
189.398611,31.959587
189.678889,33.314565
189.968611,34.388868
190.245556,35.366388
190.426389,35.366388
190.655556,36.682652
190.963611,37.524673
191.424167,36.20841
191.7475,37.11818
191.754722,37.11818
192.051667,38.33766
192.416111,37.11818
192.698333,37.718242
192.981667,39.00547
193.017778,39.00547
193.383333,38.182805
193.676667,37.602101
193.966944,37.592422
194.409167,37.592422
194.445,37.243999
194.728333,37.30207
195.015833,37.234321
195.276944,36.87622
195.669722,36.87622
195.680278,36.87622
195.958889,36.547154
196.678056,36.489083
196.968056,36.276158
196.970278,36.276158
197.672778,36.421335
197.8,36.198731
198.09,36.160017
198.366667,36.160017
198.545556,36.353586
198.831667,36.189053
199.1975,36.237445
199.605833,35.889022
199.649167,35.889022
199.846389,36.072912
200.126389,35.850308
200.515278,35.956771
200.864722,35.918057
200.9625,35.918057
201.254167,35.588991
201.649444,35.482529
201.958611,35.28896
202.245278,35.279282
202.354167,35.279282
202.653056,35.17282
202.933611,34.98893
203.224722,35.047
203.606111,34.814718
203.612778,34.814718
203.901667,35.017965
204.171667,35.027643
204.539444,35.085714
204.845833,35.017965
204.874167,35.017965
205.114444,34.80504
205.4675,34.776005
205.651667,34.814718
205.653611,34.814718
206.026389,34.872789
206.403889,34.679221
206.729722,34.534044
207.114722,34.243692
207.5175,34.243692
207.877778,34.204978
208.194722,34.117873
208.603056,33.924305
208.97,33.885591
209.237778,33.963018
209.585833,33.846877
209.890556,33.95334
210.165,33.817842
210.539722,33.885591
210.84,33.798485
211.146111,33.740415
211.549444,33.856556
211.900833,33.837199
212.206944,33.817842
212.632222,33.604917
212.889722,33.846877
213.163333,33.721058
213.551111,33.837199
213.819444,33.711379
214.126389,33.662987
214.515556,33.904948
214.820556,34.088837
215.076944,34.214657
215.522778,34.543723
215.811667,34.650185
216.110833,34.814718
216.513333,34.834075
216.810833,34.795361
217.087778,34.853432
217.497778,35.066357
217.714722,35.337353
218.117222,35.511564
218.497778,35.569634
218.746389,35.801916
218.978889,35.714811
219.237778,35.714811
219.575278,35.511564
219.860278,35.405101
220.0825,35.540599
220.446389,35.443815
220.717778,35.59867
221.000556,35.530921
221.215833,35.317996
221.557778,35.424458
221.785833,35.453493
222.018333,35.443815
222.366667,35.492207
222.620556,35.41478
222.885278,35.317996
223.148611,35.41478
223.473889,35.327674
223.669167,35.424458
223.868611,35.47285
224.394722,35.327674
224.620833,35.492207
224.902778,35.47285
225.135278,35.298639
225.463611,35.424458
225.87,35.356709
226.081667,35.453493
226.506389,35.366388
227.670278,35.385745
227.870556,35.424458
228.098889,35.47285
228.415556,35.434137
228.763611,35.405101
229.088889,35.47285
229.506111,35.424458
229.734167,35.559956
229.94,35.347031
230.175833,35.521242
230.568333,35.434137
230.816389,35.47285
231.488611,35.492207
231.796944,35.47285
232.008056,35.521242
232.172778,35.443815
232.573333,35.559956
232.826667,35.492207
233.065,35.511564
233.683889,35.453493
233.95,35.59867
234.400556,35.608348
234.674167,35.550278
234.929167,35.482529
235.200278,35.540599
235.601667,36.111625
235.876667,36.218088
236.574722,36.431013
236.847222,36.556832
237.088889,36.789114
237.519722,36.914934
237.773889,36.789114
238.089722,36.63426
238.4375,36.518119
238.725278,36.460048
239.273611,36.198731
239.602222,36.247123
239.790833,36.237445
239.991389,36.160017
240.208333,36.101947
240.506389,36.014841
240.761944,35.889022
240.995,35.966449
241.221667,35.792238
241.625278,35.976128
241.884722,35.956771
242.278333,35.830951
242.663611,36.02452
242.875,35.811595
243.081389,35.908379
243.470556,35.859987
243.686944,36.130982
243.983056,36.32455
244.241944,36.314872
244.6425,36.731044
244.844722,36.518119
245.146111,36.314872
245.588056,36.150339
245.845556,36.256802
246.075556,36.189053
246.406111,36.218088
246.620833,36.092269
246.878889,36.198731
247.208056,36.111625
247.535278,36.02452
247.776944,36.189053
248.048611,36.150339
248.483056,36.092269
248.828889,36.160017
249.046111,35.995484
249.376667,36.043877
249.613611,36.034198
