time,pressure
0.0,371.842313
0.25,364.841935
0.5,357.741871
0.75,347.841848
1.0,339.841693
1.5,330.241701
2.0,316.042539
3.0,285.8421
4.0,262.842381
5.0,244.842516
6.0,223.842352
7.0,203.94262
8.0,189.842177
9.0,173.14212
10.0,159.842081
11.0,148.742906
12.0,137.843106
13.0,126.842652
14.0,115.843165
15.0,104.54268
16.0,93.94291
17.0,83.842545
17.833333,72.142343
18.833333,59.942736
19.633333,58.642928
19.75,58.742616
19.916667,57.542496
20.25,55.743284
20.5,57.442808
20.75,59.342676
21.0,60.642483
21.25,61.943258
21.666667,64.542873
22.166667,60.942513
22.666667,64.342531
23.333333,58.543241
23.666667,60.642483
24.333333,54.442508
24.666667,56.743061
25.283333,50.642774
26.25,56.443031
26.666667,51.642551
27.333333,55.542941
27.666667,51.542864
28.333333,55.542941
28.666667,51.342521
29.383333,55.642628
29.666667,52.542641
30.416667,57.343121
30.666667,54.243134
31.416667,58.642928
31.666667,55.743284
32.416667,60.143078
32.666667,57.242466
33.416667,61.442886
33.666667,58.442586
34.216667,61.542573
34.466667,62.543318
34.5,62.643006
34.75,60.042423
35.5,63.942813
35.75,61.343198
36.8,63.243066
37.05,64.143156
37.083333,64.443186
37.366667,63.642783
37.633333,65.043246
37.8,64.042501
39.5,71.843281
39.916667,65.842681
41.0,71.142565
41.25,68.342608
42.0,71.342908
42.25,68.542951
43.166667,72.942745
43.316667,70.742848
48.55,75.142643
49.25,70.842535
50.25,72.843058
51.166667,70.742848
52.183333,73.642493
53.0,70.742848
54.0,73.542805
54.083333,72.642715
54.25,73.942523
54.5,74.643238
54.666667,71.642938
55.5,73.942523
55.666667,71.243221
56.533333,74.242553
56.666667,71.642938
57.533333,74.242553
57.666667,71.843281
58.533333,74.643238
58.666667,72.242998
59.533333,75.042955
59.666667,72.642715
60.533333,75.24233
60.666667,72.742403
61.533333,75.84239
61.666667,73.342463
62.533333,75.943045
62.666667,73.542805
63.533333,76.14242
63.666667,73.743148
64.533333,76.342763
64.683333,73.542805
65.533333,76.042733
65.683333,73.242775
66.533333,75.943045
66.683333,73.242775
67.533333,75.643015
67.683333,72.942745
71.533333,74.943268
71.683333,72.042655
77.2,75.24233
77.35,72.442373
78.2,75.342985
78.333333,72.942745
79.2,75.24233
79.333333,72.843058
80.2,75.24233
80.333333,72.843058
83.2,76.14242
83.333333,73.642493
84.2,75.643015
84.333333,73.143088
85.2,75.643015
85.333333,73.143088
86.2,75.742703
86.333333,73.342463
88.2,75.643015
88.333333,73.242775
90.2,75.54236
90.333333,73.042433
95.3,73.242775
95.933333,74.142865
97.266667,73.743148
97.916667,74.242553
99.216667,74.842613
100.1,75.142643
104.3,73.743148
104.933333,75.142643
108.233333,75.54236
108.85,73.542805
110.1,75.742703
111.4,73.443118
112.55,75.54236
112.7,73.143088
113.516667,75.142643
113.666667,73.642493
114.516667,74.842613
114.666667,74.343208
115.516667,75.643015
116.366667,74.442895
116.866667,76.243075
117.533333,75.142643
118.85,75.643015
119.5,74.742925
120.833333,75.042955
121.466667,74.242553
122.116667,75.742703
122.333333,74.242553
124.05,76.14242
124.65,74.943268
125.316667,76.44245
127.083333,75.643015
129.083333,73.743148
133.066667,76.042733
133.75,75.442673
136.116667,75.943045
139.333333,75.84239
139.45,75.442673
141.3,75.442673
141.983333,74.242553
143.3,75.442673
143.933333,73.743148
145.083333,75.442673
147.083333,75.24233
149.083333,74.842613
150.333333,74.943268
151.0,74.643238
152.333333,74.242553
153.0,74.242553
154.366667,73.443118
155.033333,74.842613
156.35,73.743148
156.983333,74.842613
158.316667,74.842613
158.95,75.042955
160.283333,75.742703
160.933333,74.842613
164.2,75.54236
166.216667,75.442673
168.083333,75.342985
170.25,75.54236
172.916667,75.042955
174.35,74.043178
175.033333,75.24233
176.366667,73.443118
179.083333,75.442673
181.083333,75.342985
182.3,73.942523
182.933333,73.842835
186.333333,74.442895
186.983333,74.442895
660.083333,359.5556
660.333333,356.054928
660.583333,353.055595
660.833333,350.355325
661.083333,347.455681
661.583333,340.955676
662.083333,335.455448
663.083333,324.055276
664.083333,314.055566
667.5,282.055915
668.583333,272.85564
671.083333,247.555368
673.083333,238.555436
674.75,227.655636
674.916667,227.355606
677.083333,213.855224
680.166667,196.155389
683.833333,177.05606
684.416667,173.4557
687.583333,159.656256
689.05,154.655433
690.333333,149.855921
692.333333,143.155573
694.166667,136.855911
696.583333,128.756069
698.583333,122.556094
700.583333,116.855524
701.75,113.256132
703.083333,109.556084
704.416667,105.856037
707.083333,98.656285
708.25,94.855582
710.083333,89.45601
711.416667,84.956527
713.583333,81.25648
714.05,83.756407
715.866667,90.95616
716.5,89.056292
718.416667,83.055692
720.25,77.35609
721.0,74.856163
722.25,71.156115
724.583333,63.656333
725.25,61.65581
727.916667,54.056341
728.25,53.255938
731.083333,67.05635
733.083333,71.956518
734.083333,68.056128
735.083333,64.856453
736.083333,61.95584
737.083333,58.956508
738.083333,56.755643
739.083333,55.956208
739.7,54.356371
743.416667,70.856085
744.083333,69.755653
745.083333,66.45629
746.083333,63.15596
747.083333,61.756466
747.333333,62.5559
747.75,62.456213
749.083333,66.255948
749.333333,65.655888
749.416667,65.655888
750.416667,67.65641
751.083333,70.655743
751.933333,70.355713
752.516667,72.256548
752.933333,71.255803
753.433333,73.055983
753.933333,71.756175
754.35,73.256325
754.933333,71.555833
755.35,73.055983
755.933333,71.356458
756.25,72.656265
756.916667,70.655743
757.25,71.956518
757.916667,69.955995
758.25,71.156115
758.916667,69.256248
759.25,70.456368
759.916667,69.055905
760.366667,70.655743
760.916667,69.355935
761.416667,71.056428
761.916667,69.455623
762.416667,71.156115
762.916667,69.755653
763.7,70.655743
764.316667,70.655743
765.616667,70.655743
766.266667,70.856085
766.916667,69.755653
770.1,73.15567
770.75,73.4557
771.383333,74.05576
773.816667,73.856385
775.15,75.056505
775.783333,75.056505
776.433333,76.056283
777.716667,75.55591
778.366667,76.056283
779.666667,76.15597
780.3,76.456
781.566667,77.35609
782.216667,77.35609
782.85,76.656343
784.166667,77.256403
784.816667,77.155747
786.133333,77.65612
786.8,77.455777
788.116667,78.355867
788.783333,77.755807
790.116667,78.156493
790.8,77.95615
793.183333,78.55621
793.9,78.055837
795.266667,78.655897
795.9,77.856463
797.016667,78.055837
797.666667,78.456523
798.333333,78.755585
799.65,78.655897
800.3,78.456523
801.6,78.55621
802.283333,78.355867
803.616667,78.456523
804.3,78.55621
805.65,79.255957
806.25,79.4563
807.616667,79.655675
808.266667,79.355645
808.9,78.456523
810.2,79.15627
810.816667,78.755585
812.133333,79.355645
812.783333,79.255957
814.116667,78.85624
815.75,78.655897
819.2,77.755807
819.85,77.155747
821.133333,77.155747
821.75,77.155747
822.416667,77.65612
823.75,76.855717
824.4,76.15597
825.666667,74.856163
826.333333,74.65582
827.65,74.556133
828.316667,75.056505
829.633333,76.15597
830.266667,76.356313
830.9,75.955627
832.25,77.05606
832.883333,76.956373
834.183333,78.055837
834.883333,78.156493
836.183333,80.255735
854.083333,101.756272
878.083333,100.556152
902.083333,78.055837
926.083333,78.655897
950.083333,77.256403
974.083333,78.755585
998.083333,78.85624
1022.083333,83.256035
1046.083333,77.35609
1070.083333,75.955627
1094.083333,74.556133
1118.083333,78.25618
1142.083333,80.65642
1166.083333,79.15627
1190.083333,77.856463
1214.083333,78.355867
1238.083333,75.25588
1262.083333,74.556133
1286.083333,80.05636
1310.083333,87.756485
1334.083333,86.75574
1358.083333,87.95586
1382.083333,87.556142
1406.083333,87.256112
1430.083333,79.15627
1454.083333,73.356013
1478.083333,77.05606
1502.083333,80.756107
1526.083333,56.156551
1598.083333,43.156541
1622.083333,100.655839
1646.083333,133.155864
1670.083333,158.456136
1694.083333,179.155302
1718.083333,195.355955
1742.083333,209.755459
1766.083333,222.155409
1790.083333,233.055208
1814.083333,242.155796
1838.083333,249.055518
1862.083333,254.45509
1886.083333,262.455245
1910.083333,267.055383
1934.083333,271.755207
1958.083333,276.755062
1982.083333,280.355422
2006.083333,270.955773
2030.083333,261.855185
2342.083333,104.455574
2366.083333,86.45571
2390.083333,94.656207
2414.083333,81.155825
2438.083333,77.455777
2462.083333,77.455777
2486.083333,75.85594
2510.083333,75.156193
2534.083333,74.856163
2558.083333,74.556133
2582.083333,74.95585
2606.083333,75.056505
2630.083333,68.455845
2654.083333,68.85653
2678.083333,68.755875
2702.083333,68.85653
2726.083333,70.655743
2750.083333,77.856463
2774.083333,69.15656
2798.083333,68.656188
2822.083333,68.5565
2846.083333,70.955773
2870.083333,72.755953
2894.083333,69.256248
2918.083333,68.656188
2942.083333,70.955773
2966.083333,69.856308
3038.083333,68.85653
3062.083333,68.956218
3086.083333,68.956218
3110.083333,68.85653
3134.083333,68.656188
3158.083333,68.656188
3182.083333,68.656188
3206.083333,68.5565
3230.083333,70.456368
3254.083333,69.055905
3278.083333,69.955995
3302.083333,72.356235
3326.083333,69.556278
3350.083333,69.256248
3374.083333,71.756175
3398.083333,69.655965
3422.083333,70.955773
3446.083333,70.355713
3470.083333,84.056437
3494.083333,80.156047
3518.083333,70.256025
3542.083333,72.155893
3566.083333,71.956518
3590.083333,71.255803
3614.083333,70.655743
3638.083333,71.156115
3662.083333,71.555833
3686.083333,63.75602
3710.083333,51.656101
3734.083333,63.356303
3758.083333,68.356158
3782.083333,68.5565
3806.083333,68.356158
3830.083333,67.756098
3854.083333,68.85653
3878.083333,69.15656
3902.083333,69.055905
3926.083333,69.15656
3950.083333,69.055905
3974.083333,69.355935
3998.083333,66.856008
4022.083333,69.455623
4046.083333,70.256025
4070.083333,69.455623
4094.083333,70.856085
4118.083333,70.556055
4142.083333,68.5565
4166.083333,67.855785
4190.083333,68.956218
4214.083333,66.056573
4238.083333,67.95644
4262.083333,68.85653
4286.083333,68.155815
4310.083333,67.855785
4334.083333,67.65641
4358.083333,68.155815
4382.083333,67.555755
4406.083333,69.355935
4430.083333,70.456368
4454.083333,69.755653
4478.083333,70.856085
4502.083333,70.355713
4526.083333,70.355713
4550.083333,68.5565
4574.083333,65.955918
4598.083333,66.955695
4622.083333,68.755875
4646.083333,66.655665
4670.083333,65.156483
4694.083333,65.85623
4718.083333,68.656188
4742.083333,69.355935
4766.083333,69.755653
4790.083333,69.355935
4814.083333,69.755653
4838.083333,69.055905
4862.083333,68.755875
4886.083333,67.65641
4910.083333,67.255725
4934.083333,65.355858
4958.083333,65.156483
4982.083333,64.95614
5006.083333,64.05605
5030.083333,64.256393
5054.083333,64.95614
5078.083333,65.25617
5102.083333,66.955695
5126.083333,68.056128
5150.083333,67.456068
5174.083333,68.755875
5198.083333,68.956218
5222.083333,68.85653
5246.083333,68.956218
5270.083333,69.15656
5294.083333,69.655965
5318.083333,68.956218
5342.083333,67.756098
5366.083333,67.756098
5390.083333,69.355935
5414.083333,70.655743
5438.083333,69.655965
5462.083333,68.85653
5486.083333,68.5565
5510.083333,68.956218
5534.083333,68.656188
5558.083333,68.155815
5582.083333,69.055905
5606.083333,68.956218
5630.083333,68.755875
5654.083333,69.055905
5678.083333,69.15656
5702.083333,69.15656
5726.083333,69.15656
5750.083333,50.356293
5798.083333,45.156096
5822.083333,71.255803
5846.083333,20.155854
5870.083333,20.155854
5894.083333,20.155854
5918.083333,20.155854
5942.083333,20.155854
5966.083333,20.155854
5990.083333,20.155854
6014.083333,20.155854
6038.083333,20.155854
6062.083333,20.155854
6086.083333,20.155854
6110.083333,20.155854
6134.083333,20.155854
6158.083333,20.155854
6182.083333,20.155854
6206.083333,20.155854
6230.083333,20.155854
6254.083333,20.155854
6278.083333,20.155854
6302.083333,20.155854
6326.083333,20.155854
6350.083333,195.655985
6391.083333,320.230377
6391.333333,318.229855
6391.583333,316.83036
6391.833333,315.529585
6392.083333,314.529807
6392.583333,312.230223
6393.083333,311.630163
6393.483333,310.930415
6393.716667,314.229777
6393.833333,314.229777
6394.75,310.2297
6395.5,309.229923
6396.083333,314.229777
6397.083333,309.32961
6398.083333,308.130458
6398.25,307.930115
6400.166667,314.330433
6402.166667,315.03018
6404.166667,315.429897
6406.25,315.63024
6409.083333,315.829615
6409.75,315.93027
6411.583333,316.029957
6413.083333,316.129645
6416.083333,316.2303
6420.583333,307.830428
6423.083333,307.030025
6425.083333,306.529653
6428.083333,306.129935
6431.583333,305.730218
6433.666667,305.529875
6435.75,305.430188
6437.75,305.3305
6439.333333,305.130158
6441.583333,305.03047
6443.25,305.03047
6446.833333,304.929815
6450.583333,304.73044
6451.916667,304.73044
6455.083333,304.73044
6458.083333,304.73044
6460.25,304.73044
6461.583333,304.73044
6464.583333,304.73044
6467.083333,304.73044
6469.916667,304.629785
6473.083333,304.530098
6474.833333,304.530098
6476.25,304.629785
6478.25,304.629785
6480.416667,304.530098
6482.083333,304.530098
6484.583333,304.530098
6486.75,304.43041
6487.833333,304.329755
6488.833333,304.43041
6489.833333,304.43041
6490.833333,304.43041
6491.833333,304.329755
6492.833333,304.230068
6493.833333,304.230068
6494.833333,304.230068
6495.833333,304.230068
6498.083333,304.13038
6500.083333,304.029725
6502.75,304.029725
6506.166667,303.930038
6508.416667,303.83035
6512.416667,303.930038
6515.3,304.029725
6516.683333,304.029725
6518.116667,304.029725
6520.25,303.930038
6522.25,304.029725
6524.25,303.930038
6526.416667,303.930038
6529.25,304.029725
6530.75,303.930038
6532.083333,304.029725
6538.083333,304.029725
6540.833333,303.83035
6543.416667,303.729695
6544.75,303.729695
6548.25,303.630008
6551.083333,303.630008
6552.5,303.630008
6554.583333,303.630008
6555.083333,303.630008
6556.583333,303.83035
6558.583333,303.83035
6560.083333,303.83035
6561.583333,303.83035
6566.333333,303.83035
6568.583333,303.83035
6571.25,303.83035
6572.083333,303.83035
6575.083333,303.729695
6578.083333,303.729695
6581.083333,303.729695
6584.083333,303.729695
6587.333333,303.729695
6589.416667,303.83035
6593.0,303.729695
6594.416667,303.729695
6596.166667,303.729695
6599.083333,303.729695
6614.083333,304.13038
6638.083333,303.930038
6662.083333,303.83035
6686.083333,303.83035
6710.083333,303.729695
6734.083333,303.729695
6758.083333,303.53032
6782.083333,303.429665
6806.083333,303.329978
6830.083333,303.23029
6854.083333,303.029948
6878.083333,302.829605
6902.083333,302.729918
6926.083333,302.529575
6950.083333,302.529575
6974.083333,302.230513
6998.083333,302.230513
7022.083333,302.230513
7046.083333,302.129858
7070.083333,302.03017
7094.083333,301.829828
7118.083333,301.829828
7142.083333,301.73014
7166.083333,301.529798
7190.083333,301.43011
7214.083333,301.330423
7238.083333,301.330423
7262.083333,301.229768
7286.083333,301.13008
7310.083333,301.13008
7334.083333,301.030393
7358.083333,300.929738
7382.083333,301.030393
7406.083333,301.229768
7430.083333,301.930483
7454.083333,302.03017
7478.083333,302.03017
7502.083333,302.129858
7526.083333,303.029948
7550.083333,303.930038
7574.083333,303.930038
7598.083333,304.029725
7622.083333,304.029725
7646.083333,303.930038
7670.083333,303.729695
7694.083333,304.029725
7718.083333,303.23029
7742.083333,303.129635
7766.083333,303.23029
7790.083333,303.53032
7814.083333,304.13038
7838.083333,265.530069
7862.083333,285.729831
7886.083333,304.029725
7910.083333,304.029725
7934.083333,304.13038
7958.083333,304.029725
7982.083333,303.930038
8006.083333,303.930038
8030.083333,302.230513
8054.083333,300.629708
8078.083333,300.22999
8102.083333,299.830273
8126.083333,300.029648
8150.083333,299.92996
8174.083333,299.62993
8198.083333,299.830273
8222.083333,299.729618
8246.083333,299.729618
8270.083333,299.92996
8294.083333,299.729618
8318.083333,300.130303
8342.083333,300.029648
8366.083333,300.130303
8390.083333,300.029648
8414.083333,299.92996
8438.083333,300.53002
8462.083333,300.629708
8486.083333,300.329678
8510.083333,300.730363
8534.083333,301.030393
8558.083333,301.330423
8582.083333,301.13008
8606.083333,301.229768
8630.083333,301.13008
8654.083333,301.030393
8678.083333,301.13008
8702.083333,302.230513
9873.083333,360.329871
9873.333333,353.629524
9873.583333,349.229729
9873.833333,343.629814
9874.083333,339.629737
9874.583333,328.529594
9875.083333,314.030403
9876.083333,296.92966
9877.083333,281.129693
9878.083333,260.929931
9879.083333,248.930667
9880.25,232.330297
9882.166667,211.72985
9882.333333,211.630163
9884.333333,191.930773
9887.083333,171.030296
9888.083333,162.230707
9889.083333,160.030809
9890.083333,152.230029
9891.083333,148.730324
9892.083333,142.830379
9893.083333,136.131
9895.083333,126.831038
9897.083333,117.531075
9900.666667,100.831018
9902.5,91.730431
9903.25,87.030606
9905.083333,76.830554
9908.583333,55.830389
9910.416667,61.530959
9911.583333,61.830989
9911.833333,64.030887
9912.333333,59.931122
9912.833333,57.830912
9913.333333,56.930822
9913.833333,55.931044
9914.333333,55.230329
9915.333333,53.731147
9915.833333,52.930744
9916.333333,52.130342
9916.833333,50.530504
9917.333333,49.131009
9917.833333,47.630859
9918.333333,46.331052
9918.75,45.530649
9919.0,47.831202
9919.25,49.630414
9919.5,51.630937
9919.75,53.630492
9919.916667,54.631237
9920.583333,49.131009
9920.916667,51.930967
9921.583333,48.431262
9922.0,51.630937
9922.583333,48.431262
9923.0,51.630937
9923.583333,48.630637
9924.0,52.130342
9924.583333,49.330384
9924.966667,49.731069
9925.583333,49.131009
9927.166667,52.430372
9928.916667,49.530727
9929.583333,52.430372
9930.966667,50.631159
9931.583333,49.431039
9932.583333,50.830534
9932.916667,50.331129
9934.416667,48.630637
9934.783333,48.030577
9936.25,48.630637
9936.966667,48.730324
9938.433333,46.530427
9938.733333,46.730769
9940.75,58.630346
9941.55,57.230852
9942.25,53.431117
9942.633333,56.531104
9942.75,55.330984
9943.283333,52.230997
9943.666667,55.230329
9944.283333,51.130564
9944.683333,54.530582
9945.083333,51.531249
9945.75,57.230852
9946.216667,53.030432
9948.25,67.630279
9948.75,61.930677
9949.25,67.331217
9949.75,60.930899
9950.25,67.031187
9950.716667,60.531182
9951.25,66.630501
9951.716667,60.130496
9952.25,67.530591
9952.683333,60.730556
9953.266667,65.630724
9953.683333,61.330616
9954.266667,67.130874
9954.666667,61.730334
9955.666667,70.730266
9956.083333,66.030441
9956.666667,70.730266
9957.083333,66.030441
9958.5,69.330771
9959.916667,73.231161
9960.333333,72.031041
9960.666667,74.630656
9961.083333,70.131174
9961.616667,73.830254
9962.083333,69.231084
9962.616667,72.230416
9963.016667,68.830399
9964.383333,75.731089
9964.85,70.530891
9965.383333,73.231161
9965.85,68.430681
9966.383333,71.830699
9966.683333,68.931054
9967.083333,71.430981
9967.5,69.730489
9968.083333,73.430536
9968.5,68.830399
9969.083333,73.430536
9969.5,68.931054
9970.083333,73.430536
9970.5,68.931054
9971.083333,73.531191
9971.5,68.931054
9972.083333,73.430536
9972.5,68.931054
9973.083333,73.531191
9973.5,68.931054
9974.083333,73.430536
9974.5,68.931054
9975.083333,73.330849
9975.5,69.030741
9976.083333,73.531191
9976.5,69.030741
9977.083333,73.430536
9977.5,69.030741
9978.083333,73.430536
9978.5,69.030741
9979.083333,73.430536
9979.5,69.030741
9983.083333,73.130506
9983.5,71.830699
9984.083333,75.731089
9984.5,71.230639
9985.083333,75.431059
9985.466667,71.530669
9986.083333,76.130806
9986.416667,71.731011
9987.083333,75.830776
9987.416667,71.731011
9991.416667,72.230416
9992.25,75.230716
9994.466667,74.330626
9995.25,76.331149
9996.0,74.530969
9998.25,74.030596
9998.583333,73.830254
10001.25,73.630879
10001.583333,72.730789
10002.333333,74.830999
10003.083333,72.331071
10004.166667,74.030596
10007.116667,75.630434
10007.5,75.230716
10008.2,75.930464
10008.583333,74.130284
10008.95,77.130584
10009.283333,73.531191
10009.95,77.430614
10010.283333,73.830254
10010.983333,77.230271
10011.283333,73.430536
10013.083333,74.930686
10014.266667,75.930464
10014.666667,73.531191
10016.333333,76.930241
10020.416667,74.730344
10022.05,80.130884
10022.833333,79.930541
10023.083333,81.230348
10023.383333,77.330926
10025.083333,81.430691
10025.383333,78.030674
10027.083333,82.130438
10027.4,78.430391
10032.166667,79.230794
10033.916667,81.430691
10034.233333,78.630734
10034.916667,81.130661
10035.233333,77.430614
