time,pressure
0.0,234.475166
0.2625,234.484845
0.578333,234.45581
1.216944,234.407418
1.551111,234.378382
1.8,234.397739
2.064444,234.368704
2.414722,234.349347
2.691389,234.291277
2.951111,231.610364
3.234722,225.861402
3.530833,220.722178
3.819444,216.21205
4.1075,212.01163
4.429444,207.588607
4.632222,204.92705
5.179167,198.142501
5.5125,194.213076
5.773611,191.319238
6.040556,188.638325
6.638056,183.005503
6.911389,180.721404
7.194167,178.388913
7.781944,173.859427
8.075833,171.633398
8.392222,169.378334
8.655,167.616868
8.900278,165.952185
9.163333,164.229432
9.742778,160.58068
10.006667,159.070852
10.348889,157.154531
10.6375,155.596311
10.889722,154.328442
11.153333,153.041216
11.4525,151.628172
11.703056,150.524836
11.808611,150.040916
12.083056,148.850475
12.415833,147.427752
12.703056,146.295381
13.001667,145.124296
13.264444,144.175814
13.647778,142.869232
13.898611,142.123996
14.083611,142.123996
14.1675,142.162709
14.486667,141.252941
14.755278,140.449635
15.013889,139.723756
15.108056,139.723756
15.371111,138.726882
15.464722,138.726882
15.639722,137.923576
15.925833,136.984772
16.193611,136.123396
16.468056,136.123396
16.54,135.068451
16.7425,135.068451
16.832778,134.197397
17.073056,133.490874
17.208056,133.123096
17.541667,132.164935
17.774722,132.164935
17.839444,131.371308
18.066111,131.371308
18.703611,129.145278
18.929722,128.574254
19.095833,128.574254
19.210556,127.87741
19.366944,127.87741
19.540556,127.122496
19.819722,126.454687
20.019722,125.999803
20.3875,125.999803
20.403056,125.148105
20.6425,125.148105
20.681389,124.538366
20.982778,123.918949
21.24,123.357603
21.557778,122.709151
21.668056,122.709151
21.852778,122.099413
21.952778,122.099413
22.144167,121.518709
22.468056,120.899293
22.735556,120.386338
22.9775,120.386338
23.0175,119.854027
23.238889,119.854027
23.273611,119.379786
23.590278,118.789404
23.871667,118.305485
24.1375,117.850601
24.345278,117.850601
24.455833,117.269897
24.654444,117.269897
25.025,116.331094
25.356111,115.769747
25.6125,115.363255
25.698889,115.363255
25.845278,114.966441
25.959444,114.966441
26.106111,114.550271
26.380278,114.124422
26.664167,113.650181
26.973056,113.185618
27.0875,113.185618
27.2475,112.759769
27.554722,112.27585
27.832222,111.840322
28.082222,111.443508
28.420556,110.911197
28.902222,110.17564
28.9025,110.17564
29.245556,109.643328
29.564444,109.149731
29.827222,108.772273
30.127222,108.336746
30.471389,107.83347
30.739444,107.426978
31.035556,107.039842
31.263611,106.710777
31.586667,106.27525
31.802222,105.97522
32.078056,105.597762
32.396389,105.171913
32.660278,104.83317
32.917778,104.504105
33.151944,104.213753
33.472778,103.787904
33.733611,103.487874
33.998056,103.158809
34.278056,102.829744
34.612222,102.452287
34.894722,102.1329
35.141389,101.852227
35.474444,101.484448
35.748889,101.194096
35.9575,100.971493
36.219444,100.69082
36.793056,100.100439
37.0725,99.819765
37.383611,99.519735
37.655,99.24874
37.890556,99.035816
38.174722,98.755143
38.478611,98.455113
38.729444,98.222831
38.985,97.971193
39.253333,97.709877
39.594722,97.400168
39.860278,97.14853
40.103056,96.935606
40.435833,96.625898
40.686667,96.393616
40.949722,96.161335
41.224722,95.900018
41.531667,95.609667
41.808889,95.358029
42.078333,95.135426
42.4075,94.845074
42.672222,94.612793
42.948333,94.39019
43.220278,94.157909
43.5375,93.886914
43.801667,93.683668
44.092778,93.451387
44.3975,93.209427
44.679722,92.986824
44.963333,92.754543
45.228333,92.541618
45.566389,92.280302
45.8275,92.086734
46.100833,91.873809
46.4375,91.63185
46.68,91.457639
46.94,91.302785
47.229444,91.312463
47.588611,91.283428
47.788611,91.254393
48.075278,91.186644
48.405278,91.118895
48.669444,90.8479
48.955,90.576906
49.138056,90.315589
49.481944,89.812313
49.795,89.367107
50.067222,88.93158
50.4225,88.244414
50.694167,87.770173
50.976667,87.315289
51.220556,86.928154
51.471389,86.570053
51.7525,86.163561
52.034444,85.766747
52.271667,85.457039
52.591944,85.040868
52.9375,84.624697
53.463889,84.014959
53.761667,83.685894
54.020556,83.385864
54.609444,82.74709
54.824167,82.534166
55.001111,82.369633
55.456667,81.914749
55.774444,81.614719
56.060833,81.343724
56.219444,81.198548
56.601111,80.869483
56.82,80.695272
57.126667,80.433956
57.381111,80.221031
57.607222,80.027463
58.204722,79.543544
58.475,79.33062
58.696944,79.156409
58.961667,79.156409
58.98,78.933806
59.3825,78.643454
59.656944,78.440208
59.925833,78.265997
60.031667,78.265997
60.202778,78.072429
60.546944,77.83047
60.843889,77.617545
61.053611,77.472369
61.392222,77.240088
61.648333,77.075555
61.916944,76.901344
62.243056,76.669063
62.5775,76.44646
62.838611,76.272249
63.116111,76.069003
63.48,75.817365
63.771389,75.643154
64.074722,75.449586
64.454722,75.226983
64.686667,75.091486
64.973333,74.907597
65.257222,74.743064
65.605556,74.53014
65.88,74.355929
66.077778,74.239788
66.42,74.036542
66.696111,73.891366
67.229444,73.552622
67.566389,73.349376
67.844167,73.194522
68.1175,73.02999
68.461944,72.836422
68.734444,72.700924
69.000833,72.565427
69.238889,72.42993
69.575556,72.255719
69.845278,72.100864
70.060556,71.994402
70.399722,71.820191
70.681389,71.675015
70.958333,71.52984
71.205556,71.394342
71.527778,71.220131
71.790278,71.094312
72.066667,70.939458
72.3975,70.794282
72.680556,70.639428
72.964722,70.494252
73.3475,70.320041
73.641389,70.184544
73.879167,70.058725
74.143333,69.932906
74.48,69.768373
74.765833,69.642554
75.058611,69.497378
75.363056,69.361881
75.604167,69.255419
75.744167,69.197348
76.008056,69.081208
76.351944,68.955389
76.613056,68.848926
76.994722,68.713429
77.504444,68.519861
77.755833,68.432756
78.038611,68.355329
78.3925,68.268223
78.686389,68.210153
78.945,68.210153
79.228611,68.210153
79.480833,68.181118
79.702778,68.152082
79.967222,68.123047
80.212778,67.997228
80.588333,67.774625
80.896111,67.600414
81.176389,67.474595
81.483889,67.368133
81.764444,67.232636
82.021944,67.097138
82.344722,66.951962
82.634722,66.816465
82.887222,66.690646
83.176944,66.54547
83.516667,66.380938
83.788333,66.235762
83.987778,66.138978
84.346111,65.955088
84.628611,65.819591
84.917778,65.684094
85.182778,65.558275
85.511944,65.413099
85.779722,65.277601
86.049444,65.151782
86.364167,65.025963
86.630278,64.880788
86.873333,64.764647
87.1225,64.609793
87.4425,64.454938
87.694722,64.329119
88.220278,64.029089
88.560556,63.854878
89.410278,63.409673
89.938611,63.119321
90.551944,62.828969
91.418333,62.412799
91.601667,62.412799
91.6225,62.335372
92.604167,62.335372
92.7725,61.948236
93.414167,61.648206
93.698889,61.541744
93.982222,61.44496
94.338611,61.299784
95.548611,60.883614
96.136944,60.690046
97.018889,60.399694
97.405556,60.283554
97.6925,60.167413
97.9275,60.099664
98.162222,60.022237
98.727222,59.818991
98.978889,59.741564
99.247222,59.654458
99.546667,59.557675
99.839722,59.480247
100.049444,59.40282
100.395278,59.277001
100.889444,59.122147
101.170278,59.054398
101.493056,58.947936
101.765833,58.860831
102.029722,58.793082
102.2725,58.725333
102.613889,58.628549
102.885278,58.560801
103.153611,58.483374
103.476667,58.38659
103.763889,58.309163
104.015,58.260771
104.348889,58.183344
104.608333,58.125273
104.864444,58.067203
105.426111,57.931706
105.699444,57.873635
105.982778,57.805886
106.255,57.728459
106.565556,57.651032
107.123333,57.505856
107.469722,57.418751
107.7425,57.341324
108.028889,57.273575
108.260556,57.215505
108.923611,57.041294
109.883333,56.809013
110.179444,56.750942
110.481667,56.683194
111.031667,56.538018
111.975833,56.296058
112.271667,56.218631
113.3775,55.957315
113.682222,55.889566
114.395833,55.734712
114.690833,55.647606
116.371389,55.289506
116.705556,55.241114
117.008889,55.183044
117.400278,55.076581
118.981389,54.747516
120.674167,54.418451
120.957778,54.360381
121.245556,54.263597
121.560833,54.205526
121.835833,54.147456
122.104722,54.089386
122.434722,54.021637
122.752778,53.953888
122.993889,53.895818
123.250278,53.828069
123.514444,53.779677
123.773889,53.750642
124.047222,53.682894
124.389167,53.605466
125.5925,53.324793
125.854722,53.257044
126.113889,53.198974
126.4425,53.111869
126.738611,53.04412
126.998333,52.995728
127.196667,52.995728
127.340278,52.927979
127.625,52.869909
127.873889,52.811839
128.157222,52.763447
128.26,52.763447
128.48,52.705376
129.058611,52.560201
129.369167,52.50213
130.018056,52.347276
130.440278,52.250492
131.056111,52.095638
132.099722,51.805286
132.493611,51.689146
133.529167,51.427829
134.121667,51.253618
135.524722,50.895518
136.134722,50.750342
136.822222,50.605166
139.070833,50.159961
142.401667,49.68572
143.005833,49.588936
144.571944,49.395368
144.795556,49.356654
145.043889,49.317941
145.369167,49.279227
145.651944,49.250192
145.894444,49.230835
146.162222,49.192122
146.495,49.153408
146.7825,49.114695
147.028056,49.075981
147.340556,49.027589
147.543889,49.008233
147.775278,48.969519
148.034722,48.940484
148.374722,48.892092
148.644167,48.872735
149.010278,48.824343
149.477778,48.746916
149.748889,48.717881
150.047222,48.679167
150.359722,48.640454
150.625556,48.611419
150.853889,48.582383
151.148056,48.54367
151.465833,48.504956
151.742778,48.4856
152.023333,48.437208
152.2825,48.417851
152.6325,48.379137
152.890833,48.340424
153.156667,48.311389
153.505833,48.272675
153.783333,48.24364
154.027778,48.204926
154.382222,48.156534
154.644444,48.117821
154.935556,48.088786
155.225278,48.050072
155.565278,48.011359
155.860833,47.972645
156.135278,47.94361
156.465833,47.895218
156.744167,47.856504
157.018056,47.817791
157.271667,47.788756
157.601111,47.740364
157.8775,47.721007
158.179722,47.682293
158.496944,47.64358
158.749167,47.614545
159.041389,47.575831
159.364167,47.517761
159.628056,47.488726
159.909167,47.450012
160.1675,47.420977
160.505,47.372585
160.742222,47.34355
161.0325,47.304836
161.364722,47.246766
161.651389,47.217731
161.876389,47.198374
162.163056,47.169339
162.507222,47.120947
162.765,47.091912
163.051389,47.053198
163.405278,47.024163
163.685833,46.995128
163.986944,46.956414
164.236667,46.937058
164.574167,46.898344
164.859722,46.869309
165.124722,46.840274
165.466111,46.80156
165.739722,46.782203
166.040556,46.753168
166.366389,46.714455
166.675,46.675741
166.953056,46.637028
167.236944,46.598314
167.574722,46.569279
167.818333,46.540244
168.438333,46.482173
168.717222,46.44346
168.977222,46.414425
169.252778,46.38539
169.5175,46.346676
169.830556,46.317641
170.437222,46.249892
170.709444,46.230535
170.970556,46.2015
171.250833,46.172465
171.821667,46.114395
172.074722,46.08536
172.386667,46.036968
172.623889,46.017611
172.971111,45.988576
173.430278,45.940184
173.715833,45.911149
173.970556,45.872435
174.225833,45.853078
174.470556,45.824043
174.741389,45.804686
175.018889,45.78533
175.360833,45.746616
175.923611,45.688546
176.105,45.669189
176.429167,45.640154
176.676389,45.611119
176.970556,45.582083
177.224167,45.562727
177.5525,45.524013
177.845,45.504656
178.106111,45.4853
178.451111,45.446586
178.709444,45.427229
178.984167,45.398194
179.223611,45.369159
179.569167,45.349802
179.832778,45.320767
180.068889,45.30141
180.403056,45.262697
180.675278,45.233662
180.950278,45.214305
181.236111,45.18527
181.553333,45.146556
181.835556,45.117521
182.098333,45.098164
182.443056,45.049772
182.712778,45.030415
182.993889,45.00138
183.2675,44.972345
183.614722,44.933632
183.84,44.914275
184.043889,44.894918
184.346389,44.865883
184.655833,44.836848
184.927778,44.817491
185.198056,44.788456
185.981944,44.720707
186.350556,44.70135
186.622222,44.681993
186.892222,44.662637
187.141389,44.633602
187.457222,44.604566
187.726389,44.594888
187.973333,44.575531
188.233611,44.536818
188.539167,44.517461
188.8075,44.498104
189.01,44.478747
189.356111,44.469069
189.623056,44.440034
189.896667,44.420677
190.157778,44.391642
190.4575,44.362607
190.705278,44.333572
190.976667,44.304536
191.886944,44.207752
192.489722,44.149682
192.766111,44.130325
193.341111,44.072255
193.596111,44.04322
193.855556,44.023863
194.346111,43.975471
194.616389,43.946436
194.880556,43.927079
195.481111,43.869009
195.753889,43.830295
196.052778,43.80126
196.385,43.762547
196.66,43.74319
196.979444,43.714155
197.484167,43.665763
197.746667,43.627049
198.000556,43.859331
198.394444,43.752868
198.929444,43.68512
199.2225,43.636728
199.547222,43.598014
199.791944,43.588336
199.975278,43.559301
200.218889,43.559301
200.235833,43.530265
200.543056,43.481873
200.823333,43.44316
201.090556,43.598014
201.335556,43.598014
201.429167,44.275501
201.950278,45.107842
202.270556,45.572405
202.607222,46.066003
203.154722,46.830595
203.511111,47.304836
203.780556,47.653258
204.386111,48.456564
205.013611,49.308263
206.625,51.553648
206.941389,51.998854
207.241667,52.424703
207.619722,52.966693
207.978889,53.499004
208.270556,53.924853
208.818611,54.718481
209.152222,55.221757
210.1375,56.721907
210.794722,57.728459
212.081944,59.818991
212.686944,59.431856
212.948611,58.580157
214.533611,55.250792
214.720556,54.970119
214.949444,54.631375
215.970278,53.34415
216.516944,52.734412
216.799167,52.44406
217.037222,52.2021
217.623889,51.650432
217.951667,51.369759
218.170278,51.195548
218.484722,50.924553
218.736389,50.740664
219.010556,50.527739
219.353611,50.256744
219.658611,50.063177
219.939722,49.869609
220.229167,49.676041
220.532778,49.482473
221.042222,49.192122
221.445833,48.940484
221.705833,48.795308
221.985278,48.640454
222.235,48.495278
222.51,48.350102
222.698611,48.253318
222.907222,48.804986
223.213889,49.627649
223.5825,50.459991
223.874444,51.060051
224.143056,51.592362
224.491667,52.269849
224.788889,52.821517
225.096667,53.373185
225.651389,54.331345
225.873056,54.699124
226.389167,55.550822
227.077778,56.683194
227.671667,57.621997
240.953889,49.405046
241.253611,49.240514
241.507222,49.105016
241.728333,48.979197
241.938333,48.979197
242.034444,48.824343
242.2775,48.688846
242.541944,48.563027
242.752778,48.456564
243.143611,48.262997
243.531667,48.079107
243.746667,47.992002
244.426944,47.604866
244.788611,47.40162
245.069444,47.246766
245.453333,47.053198
245.711111,46.927379
246.0075,46.782203
246.336111,46.617671
246.901111,46.346676
247.171944,46.230535
247.496389,46.095038
247.758333,45.998254
248.019444,45.891792
248.343333,45.746616
248.630833,45.640154
248.880833,45.553048
249.172778,45.436908
249.5125,45.320767
249.813611,45.223983
250.0775,45.127199
250.451111,45.00138
250.705,44.914275
250.975278,44.817491
251.569167,44.64328
251.837222,44.565853
252.101111,44.469069
252.708333,44.28518
252.966389,44.198074
253.261944,44.110969
253.599444,44.023863
253.8725,43.936758
254.137778,43.859331
254.504167,43.762547
254.926111,43.636728
255.234167,43.559301
255.601389,43.462517
255.885556,43.394768
256.151944,43.317341
256.453611,43.239914
256.730556,43.181843
257.023333,43.104416
257.341111,43.017311
257.621944,42.939884
257.878889,42.881813
258.499722,42.717281
258.767778,42.649532
259.047778,42.591462
259.3975,42.514035
259.678611,42.455964
259.944167,42.388216
260.816389,42.18497
261.098611,42.107542
261.419444,42.039794
261.714444,41.962367
261.984722,41.904296
262.558056,41.768799
262.815833,41.710729
263.124722,41.662337
263.433056,41.594588
263.700556,41.526839
263.984722,41.468769
264.233611,41.410699
264.540833,41.34295
264.854444,41.28488
265.168056,41.207452
265.510278,41.139704
265.698056,41.091312
265.927778,41.052598
266.125556,41.004206
266.472222,40.926779
266.999722,40.810639
267.251944,40.762247
267.604722,40.68482
267.8825,40.617071
268.154167,40.559001
268.483889,40.491252
268.936389,40.375111
269.383333,40.278327
269.660278,40.220257
269.905556,40.171865
270.154167,40.133151
270.519722,40.065403
270.795,39.997654
271.020556,39.949262
271.373056,39.871835
271.628056,39.8428
271.928333,39.765373
272.176944,39.716981
272.521111,39.65891
272.791111,39.591162
273.063333,39.54277
273.346944,39.4847
273.613056,39.426629
273.880278,39.378237
274.168611,39.310489
274.483056,39.24274
274.777222,39.204026
275.101667,39.126599
275.429167,39.039494
275.941111,38.94271
276.229444,38.874961
276.542778,38.807212
276.821389,38.749142
277.085278,38.691072
277.500278,38.613645
277.743889,38.565253
278.033056,38.497504
278.6725,38.34265
278.8975,38.313615
279.156111,38.245866
279.487222,38.178117
279.724167,38.120047
280.0225,38.061977
280.3575,38.003906
280.644722,37.945836
281.456389,37.790982
281.746111,37.732911
282.378333,37.616771
283.555,37.394168
283.825,37.345776
284.088889,37.278027
284.347778,37.239314
284.616389,37.181243
284.863056,37.14253
285.14,37.103816
285.463056,37.036068
285.982778,36.929605
286.268611,36.871535
287.158889,36.707002
287.479722,36.629575
287.726111,36.590862
287.979444,36.523113
288.238889,36.494078
288.584167,36.416651
289.103611,36.30051
289.431389,36.232761
289.702222,36.184369
290.004722,36.784429
290.275,37.248992
290.894167,38.216831
291.136111,38.58461
291.403056,38.516861
291.988611,38.245866
292.252778,38.168439
292.954444,38.032941
293.441389,37.955514
293.679722,37.916801
293.993333,37.868409
294.223611,37.839374
294.550833,37.790982
294.820556,37.761947
295.111111,37.723233
295.435278,37.68452
295.709167,37.645806
295.953611,37.616771
296.2525,37.587736
296.593611,37.5587
296.875833,37.519987
297.155556,37.50063
297.461111,37.471595
297.773611,37.44256
298.062222,37.413525
298.398611,37.38449
298.671389,37.365133
298.970556,37.326419
299.226944,37.307062
299.563056,37.268349
299.827778,37.248992
300.101389,37.219957
300.445556,37.181243
300.713333,37.161887
301.005833,37.14253
301.268889,37.123173
301.623056,37.123173
301.869444,37.113495
302.098056,37.103816
302.430833,37.094138
302.685278,37.084459
302.928333,37.094138
303.205833,37.065103
303.786111,37.68452
304.098333,37.965193
304.431667,38.226509
304.700833,38.439434
304.9675,38.652358
305.259722,38.874961
305.595833,39.116921
305.882778,39.329845
306.1675,39.533091
306.48,39.765373
306.745556,39.95894
307.011111,40.152508
307.388056,40.433181
307.653056,40.617071
307.927778,40.829995
308.206111,41.04292
308.514444,41.265523
308.776667,41.459091
309.034167,41.662337
309.358889,41.894618
309.654722,42.126899
309.906389,42.320467
310.176944,42.523713
310.454167,42.726959
310.760278,42.978597
311.053056,43.2012
311.368889,43.462517
311.570278,43.617371
311.8375,43.839974
312.079167,44.033542
312.406944,44.314215
312.6775,44.536818
312.966389,44.788456
313.241944,45.020737
313.599444,45.330445
313.8825,45.582083
314.095833,45.765973
314.3775,46.017611
314.913611,46.511209
315.852222,47.40162
316.046667,47.595188
316.340833,47.875861
316.97,48.504956
316.970278,48.504956
317.286667,48.814665
317.581667,49.134052
317.864167,49.424403
318.156667,49.734112
318.498611,50.082534
318.800556,50.430955
319.071667,50.730985
319.408611,51.098764
319.653611,51.389116
319.905278,51.669789
320.201667,52.018211
320.523333,52.395668
320.81,52.753768
321.081667,53.073155
321.432222,53.499004
321.716111,53.847426
321.895833,54.089386
322.170833,54.437808
322.458611,54.815265
322.748889,55.192722
323.039722,55.570179
323.347778,55.976671
323.607778,56.34445
323.886667,56.721907
324.144167,57.060651
324.480556,57.534892
324.733333,57.892992
325.422222,58.870509
325.676111,59.218931
325.981944,59.683494
326.333333,60.18677
326.618333,60.60294
326.896389,61.019111
327.178056,61.435282
327.516944,61.957915
327.815278,62.412799
328.129722,62.896718
328.481944,63.448386
328.770278,63.912949
329.023889,64.319441
329.274167,64.696898
329.592222,65.209853
329.875278,65.674415
330.458056,66.613219
330.752222,67.08746
331.054444,67.571379
331.401111,68.152082
331.670278,68.58761
332.271389,69.613519
332.621111,70.194222
332.869444,70.600714
333.178611,71.142704
333.510278,71.713729
334.011944,72.575105
334.389444,73.204201
334.560556,73.504231
335.164722,74.520461
335.517778,75.120521
335.7775,75.575405
336.065556,76.059325
336.39,76.581958
336.665556,65.88734
336.971389,65.64538
337.348611,64.648506
337.620833,62.790256
337.911667,62.161161
338.229722,61.241714
338.5575,60.273875
338.8275,59.577031
339.134722,58.80276
339.474444,57.989776
339.765,57.331646
