time,pressure
0.0,27.055491
2.0,22.603432
4.0,19.893485
6.0,17.667455
8.0,15.53821
10.0,13.215398
12.0,11.76364
14.0,10.602233
16.0,9.634394
18.0,8.860123
20.0,8.182636
22.0,7.795501
24.0,7.408365
26.0,7.118013
28.0,7.02123
30.0,7.02123
32.0,7.118013
34.0,7.214797
36.0,7.214797
38.0,7.311581
40.0,7.505149
42.0,7.698717
44.0,7.795501
46.0,7.698717
48.0,7.698717
50.0,7.795501
52.0,7.892284
54.0,7.892284
56.0,7.892284
58.0,7.892284
60.0,7.989068
62.0,7.989068
64.0,7.892284
66.0,7.892284
68.0,7.892284
70.0,7.892284
72.0,7.892284
74.0,7.892284
76.0,7.795501
78.0,7.892284
80.0,7.892284
82.0,7.892284
84.0,7.795501
86.0,7.795501
88.0,7.698717
90.0,7.698717
92.0,7.698717
94.0,7.601933
96.0,7.601933
98.0,7.505149
100.0,7.505149
102.0,7.505149
104.0,7.505149
106.0,7.505149
108.0,7.505149
110.0,7.505149
112.0,7.505149
114.0,7.505149
116.0,7.505149
118.0,7.505149
120.0,7.505149
122.0,7.505149
124.0,7.505149
126.0,7.505149
128.0,7.408365
130.0,7.408365
132.0,7.408365
134.0,7.311581
136.0,7.311581
138.0,7.311581
140.0,7.311581
142.0,7.311581
144.0,7.311581
146.0,7.311581
148.0,7.311581
150.0,7.311581
152.0,7.311581
154.0,7.311581
156.0,7.214797
158.0,7.311581
160.0,7.214797
162.0,7.214797
164.0,7.214797
166.0,7.214797
168.0,7.214797
170.0,7.214797
172.0,7.118013
174.0,7.118013
176.0,7.118013
178.0,7.118013
180.0,7.118013
182.0,7.118013
184.0,7.118013
186.0,7.118013
188.0,7.118013
190.0,7.118013
192.0,7.118013
194.0,7.118013
196.0,7.118013
198.0,7.118013
200.0,7.118013
202.0,7.118013
204.0,7.118013
206.0,7.118013
208.0,7.118013
210.0,7.02123
212.0,7.118013
214.0,7.02123
216.0,7.118013
218.0,7.02123
220.0,7.02123
222.0,7.02123
224.0,7.02123
226.0,7.02123
228.0,7.02123
230.0,7.02123
232.0,7.02123
234.0,7.02123
236.0,7.02123
238.0,7.02123
240.0,7.02123
242.0,7.02123
244.0,7.02123
246.0,7.02123
248.0,7.02123
250.0,7.02123
252.0,7.02123
254.0,6.924446
256.0,7.02123
258.0,6.924446
260.0,6.924446
262.0,6.924446
264.0,6.924446
266.0,6.924446
268.0,6.924446
270.0,6.924446
272.0,6.924446
274.0,6.924446
276.0,6.924446
278.0,6.924446
280.0,6.924446
282.0,6.924446
284.0,6.924446
286.0,6.924446
288.0,6.924446
290.0,6.924446
292.0,6.924446
294.0,6.924446
296.0,6.924446
298.0,6.924446
300.0,6.924446
302.0,6.924446
304.0,6.924446
306.0,6.924446
308.0,6.924446
310.0,6.924446
312.0,6.924446
314.0,6.924446
316.0,6.924446
318.0,6.924446
320.0,6.924446
322.0,6.924446
324.0,6.924446
326.0,6.924446
328.0,6.924446
330.0,6.924446
332.0,6.924446
334.0,7.02123
336.0,7.02123
338.0,7.02123
340.0,7.02123
342.0,7.02123
344.0,7.02123
346.0,7.02123
348.0,7.02123
350.0,7.02123
352.0,7.02123
354.0,7.02123
356.0,7.02123
358.0,6.924446
360.0,6.924446
362.0,6.924446
364.0,6.924446
366.0,6.924446
368.0,7.02123
370.0,6.924446
372.0,7.02123
374.0,7.02123
376.0,7.02123
378.0,7.02123
380.0,7.02123
382.0,7.02123
384.0,7.02123
386.0,7.02123
388.0,7.02123
390.0,7.02123
392.0,7.02123
394.0,7.02123
396.0,7.02123
398.0,7.02123
400.0,7.02123
402.0,7.02123
404.0,7.02123
406.0,7.02123
408.0,7.02123
410.0,7.02123
412.0,7.02123
414.0,7.02123
416.0,7.02123
418.0,7.02123
420.0,7.02123
422.0,7.02123
424.0,7.02123
426.0,7.118013
428.0,7.02123
430.0,7.02123
432.0,7.02123
434.0,7.02123
436.0,7.02123
438.0,7.02123
440.0,7.02123
442.0,7.118013
444.0,7.02123
446.0,7.02123
448.0,7.02123
450.0,7.118013
452.0,7.118013
454.0,7.02123
456.0,7.02123
458.0,7.118013
460.0,7.02123
462.0,7.118013
464.0,7.118013
466.0,7.118013
468.0,7.118013
470.0,7.118013
472.0,7.118013
474.0,7.118013
476.0,7.118013
478.0,7.118013
480.0,7.118013
482.0,7.02123
484.0,7.02123
486.0,7.118013
488.0,7.118013
490.0,7.118013
492.0,7.118013
494.0,7.118013
496.0,7.118013
498.0,7.118013
500.0,7.118013
502.0,7.118013
504.0,7.118013
506.0,7.118013
508.0,7.118013
510.0,7.118013
512.0,7.118013
514.0,7.118013
516.0,7.118013
518.0,7.118013
520.0,7.214797
522.0,7.214797
524.0,7.118013
526.0,7.118013
528.0,7.118013
530.0,7.118013
532.0,7.118013
534.0,7.118013
536.0,7.118013
538.0,7.118013
540.0,7.118013
542.0,7.214797
544.0,7.118013
546.0,7.214797
548.0,7.118013
550.0,7.118013
552.0,7.118013
554.0,7.118013
556.0,7.118013
558.0,7.118013
560.0,7.214797
562.0,7.214797
564.0,7.214797
568.0,7.214797
570.0,7.214797
572.0,7.214797
574.0,7.214797
576.0,7.214797
578.0,7.214797
580.0,7.214797
582.0,7.214797
584.0,7.214797
586.0,7.214797
588.0,7.214797
590.0,7.214797
592.0,7.214797
594.0,7.311581
596.0,7.214797
598.0,7.214797
600.0,7.214797
602.0,7.214797
604.0,7.214797
606.0,7.214797
608.0,7.214797
610.0,7.214797
612.0,7.214797
614.0,7.214797
616.0,7.214797
618.0,7.214797
620.0,7.214797
622.0,7.214797
624.0,7.214797
626.0,7.214797
628.0,7.214797
632.0,7.214797
634.0,7.214797
636.0,7.214797
638.0,7.214797
640.0,7.214797
642.0,7.214797
644.0,7.214797
646.0,7.214797
648.0,7.214797
650.0,7.214797
652.0,7.214797
654.0,7.214797
656.0,7.214797
658.0,7.214797
660.0,7.214797
662.0,7.214797
664.0,7.214797
666.0,7.214797
668.0,7.214797
670.0,7.214797
672.0,7.214797
674.0,7.214797
676.0,7.214797
680.0,7.214797
682.0,7.214797
684.0,7.214797
686.0,7.214797
688.0,7.214797
690.0,7.214797
692.0,7.214797
694.0,7.214797
696.0,7.214797
698.0,7.214797
700.0,7.214797
702.0,7.214797
704.0,7.214797
706.0,7.214797
708.0,7.214797
710.0,7.214797
712.0,7.214797
716.0,7.214797
718.0,7.214797
720.0,7.118013
722.0,7.214797
724.0,7.214797
726.0,7.214797
728.0,7.214797
730.0,7.214797
732.0,7.214797
734.0,7.214797
736.0,7.214797
738.0,7.214797
740.0,7.214797
742.0,7.214797
744.0,7.214797
746.0,7.214797
748.0,7.311581
750.0,7.214797
752.0,7.311581
754.0,7.214797
756.0,7.214797
758.0,7.311581
760.0,7.311581
764.0,7.214797
766.0,7.214797
768.0,7.214797
770.0,7.214797
776.0,7.311581
778.0,7.311581
780.0,7.214797
782.0,7.311581
784.0,7.214797
786.0,7.311581
788.0,7.311581
792.0,7.214797
794.0,7.214797
798.0,7.214797
800.0,7.214797
804.0,7.214797
806.0,7.214797
808.0,7.214797
810.0,7.214797
812.0,7.214797
814.0,7.311581
818.0,7.214797
820.0,7.214797
822.0,7.214797
824.0,7.311581
826.0,7.311581
828.0,7.311581
830.0,7.311581
832.0,7.311581
834.0,7.311581
836.0,7.311581
838.0,7.311581
840.0,7.311581
842.0,7.311581
844.0,7.214797
846.0,7.118013
848.0,7.214797
850.0,7.311581
852.0,7.311581
854.0,7.311581
856.0,7.311581
858.0,7.408365
860.0,7.311581
862.0,7.311581
864.0,7.311581
866.0,7.311581
868.0,7.311581
870.0,7.311581
872.0,7.408365
874.0,7.311581
876.0,7.408365
878.0,7.408365
880.0,7.408365
882.0,7.408365
884.0,7.408365
886.0,7.408365
888.0,7.311581
890.0,7.408365
892.0,7.408365
894.0,7.408365
896.0,7.408365
898.0,7.408365
900.0,7.408365
902.0,7.408365
904.0,7.408365
906.0,7.408365
908.0,7.408365
910.0,7.311581
912.0,7.311581
914.0,7.311581
928.0,7.311581
930.0,7.311581
932.0,7.311581
934.0,7.214797
936.0,7.214797
938.0,7.214797
940.0,7.214797
942.0,7.214797
944.0,7.311581
946.0,7.311581
948.0,7.311581
950.0,7.311581
952.0,7.311581
954.0,7.311581
956.0,7.311581
958.0,7.214797
960.0,7.214797
962.0,7.214797
964.0,7.311581
966.0,7.311581
968.0,7.311581
970.0,7.311581
972.0,7.311581
974.0,7.311581
976.0,7.311581
978.0,7.311581
980.0,7.214797
982.0,7.311581
984.0,7.311581
986.0,7.311581
988.0,7.214797
990.0,7.311581
992.0,7.311581
994.0,7.311581
996.0,7.311581
998.0,7.311581
1000.0,7.311581
1002.0,7.311581
1004.0,7.214797
1006.0,7.118013
1008.0,7.214797
1010.0,7.311581
1012.0,7.311581
1014.0,7.311581
1016.0,7.311581
1018.0,7.408365
1020.0,7.408365
1022.0,7.408365
1024.0,7.311581
1026.0,7.311581
1028.0,7.311581
1030.0,7.311581
1032.0,7.311581
1034.0,7.311581
1036.0,7.408365
1038.0,7.408365
1040.0,7.408365
1044.0,7.408365
1046.0,7.408365
1048.0,7.408365
1050.0,7.408365
1052.0,7.408365
1054.0,7.408365
1056.0,7.311581
1060.0,7.408365
1062.0,7.311581
1064.0,7.408365
1066.0,7.408365
1068.0,7.408365
1070.0,7.408365
1072.0,7.408365
1074.0,7.408365
1076.0,7.408365
1078.0,7.408365
1080.0,7.408365
1082.0,7.408365
1084.0,7.408365
1086.0,7.408365
1088.0,7.408365
1090.0,7.408365
1092.0,7.408365
1094.0,7.408365
1096.0,7.408365
1098.0,7.505149
1100.0,7.505149
1102.0,7.408365
1104.0,7.408365
1106.0,7.408365
1108.0,7.408365
1110.0,7.408365
1112.0,7.408365
1114.0,7.505149
1116.0,7.505149
1118.0,7.505149
1120.0,7.505149
1122.0,7.408365
1124.0,7.505149
1126.0,7.505149
1128.0,7.408365
1130.0,7.408365
1132.0,7.408365
1134.0,7.408365
1136.0,7.505149
1138.0,7.505149
1140.0,7.505149
1142.0,7.505149
1144.0,7.505149
1146.0,7.505149
1148.0,7.505149
1150.0,7.408365
1152.0,7.408365
1154.0,7.408365
1156.0,7.505149
1158.0,7.505149
1160.0,7.505149
1162.0,7.505149
1166.0,7.505149
1168.0,7.505149
1170.0,7.505149
1172.0,7.505149
1174.0,7.408365
1176.0,7.408365
1178.0,7.505149
1180.0,7.505149
1182.0,7.505149
1184.0,7.505149
1186.0,7.505149
1188.0,7.505149
1190.0,7.505149
1192.0,7.505149
1194.0,7.505149
1196.0,7.505149
1198.0,7.505149
1200.0,7.505149
1202.0,7.505149
1204.0,7.505149
1206.0,7.505149
1208.0,7.505149
1210.0,7.505149
1212.0,7.505149
1214.0,7.505149
1216.0,7.505149
1218.0,7.505149
1220.0,7.408365
1222.0,7.408365
1224.0,7.408365
1226.0,7.408365
1228.0,7.408365
1230.0,7.505149
1232.0,7.505149
1234.0,7.505149
1236.0,7.505149
1238.0,7.505149
1242.0,7.505149
1244.0,7.505149
1246.0,7.505149
1248.0,7.505149
1250.0,7.505149
1252.0,7.505149
1254.0,7.505149
1256.0,7.601933
1258.0,7.505149
1260.0,7.505149
1262.0,7.601933
1264.0,7.601933
1266.0,7.601933
1274.0,7.408365
1276.0,7.408365
1278.0,7.408365
1280.0,7.408365
1282.0,7.408365
1284.0,7.408365
1286.0,7.408365
1288.0,7.408365
1290.0,7.408365
1292.0,7.408365
1294.0,7.408365
1296.0,7.408365
1298.0,7.311581
1300.0,7.408365
1302.0,7.408365
1304.0,7.408365
1306.0,7.408365
1308.0,7.408365
1310.0,7.408365
1312.0,7.408365
1314.0,7.408365
1316.0,7.408365
1318.0,7.408365
1320.0,7.408365
1322.0,7.408365
1324.0,7.311581
1326.0,7.408365
1328.0,7.408365
1330.0,7.408365
1332.0,7.408365
1334.0,7.408365
1336.0,7.408365
1338.0,7.408365
1340.0,7.408365
1342.0,7.408365
1344.0,7.408365
1346.0,7.408365
1348.0,7.408365
1350.0,7.408365
1352.0,7.505149
1354.0,7.408365
1356.0,7.408365
1358.0,7.408365
1360.0,7.408365
1362.0,7.408365
1364.0,7.408365
1366.0,7.408365
1368.0,7.408365
1380.0,7.408365
1382.0,7.408365
1384.0,7.408365
1386.0,7.408365
1388.0,7.408365
1390.0,7.311581
1392.0,7.214797
1394.0,7.311581
1396.0,7.408365
1398.0,7.118013
1424.0,7.408365
1426.0,7.698717
1428.0,7.698717
1430.0,7.601933
1432.0,7.601933
1434.0,7.601933
1436.0,7.311581
1438.0,7.408365
1440.0,7.505149
1442.0,7.601933
1444.0,7.601933
1446.0,7.601933
1448.0,7.601933
1450.0,7.601933
1452.0,7.601933
1454.0,7.601933
1456.0,7.601933
1458.0,7.601933
1460.0,7.601933
1462.0,7.601933
1464.0,7.601933
1466.0,7.601933
1468.0,7.601933
1470.0,7.601933
1472.0,7.601933
1474.0,7.601933
1476.0,7.601933
1478.0,7.601933
1480.0,7.601933
1482.0,7.601933
1484.0,7.601933
1486.0,7.601933
1488.0,7.601933
1490.0,7.601933
1492.0,7.601933
1494.0,7.601933
1496.0,7.601933
1498.0,7.601933
1500.0,7.601933
1502.0,7.601933
1504.0,7.698717
1506.0,7.601933
1508.0,7.601933
1510.0,7.601933
1512.0,7.601933
1514.0,7.505149
1516.0,7.505149
1518.0,7.601933
1520.0,7.601933
1522.0,7.601933
1524.0,7.601933
1526.0,7.505149
1528.0,7.601933
1530.0,7.505149
1532.0,7.505149
1534.0,7.505149
1536.0,7.505149
1538.0,7.505149
1540.0,7.505149
1542.0,7.505149
1544.0,7.505149
1546.0,7.505149
1548.0,7.505149
1550.0,7.505149
1552.0,7.505149
1554.0,7.505149
1556.0,7.505149
1558.0,7.505149
1560.0,7.505149
1562.0,7.505149
1564.0,7.505149
1566.0,7.505149
1568.0,7.505149
1570.0,7.601933
1572.0,7.601933
1574.0,7.601933
1576.0,7.601933
1578.0,7.505149
1580.0,7.505149
1582.0,7.505149
1584.0,7.505149
1586.0,7.505149
1588.0,7.505149
1590.0,7.505149
1592.0,7.505149
1594.0,7.505149
1596.0,7.505149
1598.0,7.505149
1600.0,7.505149
1602.0,7.505149
1604.0,7.505149
1606.0,7.505149
1608.0,7.505149
1610.0,7.505149
1612.0,7.505149
1614.0,7.505149
1616.0,7.601933
1618.0,7.601933
1620.0,7.601933
1622.0,7.601933
1624.0,7.601933
1626.0,7.601933
1628.0,7.601933
1630.0,7.601933
1632.0,7.601933
1634.0,7.601933
1636.0,7.601933
1638.0,7.601933
1640.0,7.601933
1642.0,7.601933
1644.0,7.601933
1646.0,7.601933
1648.0,7.601933
1650.0,7.601933
1652.0,7.601933
1654.0,7.601933
1656.0,7.601933
1658.0,7.601933
1660.0,7.505149
1662.0,7.601933
1664.0,7.505149
1666.0,7.601933
1668.0,7.601933
1670.0,7.601933
1672.0,7.505149
1674.0,7.505149
1676.0,7.505149
1678.0,7.505149
1680.0,7.505149
1682.0,7.505149
1684.0,7.505149
1686.0,7.601933
1688.0,7.505149
1690.0,7.601933
1692.0,7.601933
1694.0,7.601933
1696.0,7.601933
1698.0,7.601933
1700.0,7.601933
1702.0,7.505149
1704.0,7.505149
1706.0,7.505149
1708.0,7.505149
1710.0,7.505149
1712.0,7.505149
1714.0,7.505149
1716.0,7.505149
1718.0,7.505149
1720.0,7.505149
1722.0,7.601933
1724.0,7.601933
1726.0,7.505149
1728.0,7.505149
1730.0,7.505149
1732.0,7.601933
1734.0,7.601933
1736.0,7.601933
1738.0,7.601933
1740.0,7.601933
1742.0,7.601933
1744.0,7.601933
1746.0,7.601933
1748.0,7.601933
1750.0,7.601933
1752.0,7.601933
1754.0,7.601933
1756.0,7.601933
1758.0,7.601933
1760.0,7.601933
1762.0,7.601933
1764.0,7.601933
1766.0,7.601933
1768.0,7.601933
1770.0,7.601933
1772.0,7.601933
1774.0,7.601933
1776.0,7.601933
1778.0,7.601933
1780.0,7.601933
1782.0,7.601933
1784.0,7.601933
1786.0,7.601933
1788.0,7.601933
1790.0,7.601933
1792.0,7.601933
1794.0,7.601933
1796.0,7.601933
1798.0,7.601933
1800.0,7.601933
1802.0,7.601933
1804.0,7.601933
1806.0,7.601933
1808.0,7.601933
1810.0,7.601933
1812.0,7.601933
1814.0,7.601933
1816.0,7.505149
1818.0,7.601933
1820.0,7.601933
1822.0,7.505149
1824.0,7.505149
1826.0,7.505149
1828.0,7.505149
1830.0,7.505149
1832.0,7.505149
1834.0,7.505149
1836.0,7.505149
1838.0,7.505149
1840.0,7.505149
1842.0,7.505149
1844.0,7.408365
1846.0,7.505149
1848.016667,7.505149
1850.0,7.505149
1852.0,7.505149
1854.0,7.505149
1856.0,7.505149
1858.0,7.505149
1860.0,7.505149
1862.0,7.505149
1864.0,7.505149
1866.0,7.505149
1868.0,7.505149
1870.0,7.505149
1872.0,7.408365
1874.0,7.505149
1876.0,7.505149
1878.0,7.505149
1880.0,7.505149
1882.0,7.505149
1884.0,7.505149
1886.0,7.505149
1888.0,7.505149
1890.0,7.505149
1892.0,7.505149
1894.0,7.505149
1896.0,7.505149
1898.0,7.505149
1900.0,7.505149
1902.0,7.601933
1904.0,7.601933
1906.0,7.601933
1908.0,7.601933
1910.0,7.601933
1912.0,7.601933
1914.0,7.505149
1916.0,7.505149
1918.0,7.505149
1920.0,7.505149
1922.0,7.505149
1924.0,7.505149
1926.0,7.505149
1928.0,7.505149
1930.0,7.601933
1932.0,7.601933
1934.0,7.505149
1936.0,7.505149
1938.0,7.505149
1940.0,7.408365
1942.0,7.408365
1944.0,7.505149
1946.0,7.505149
1948.0,7.408365
1950.0,7.505149
1952.0,7.505149
1954.0,7.505149
1956.0,7.505149
1958.0,7.505149
1960.0,7.505149
1962.0,7.408365
1964.0,7.408365
1966.0,7.408365
1968.0,7.408365
1970.0,7.505149
1972.0,7.505149
1974.0,7.505149
1976.0,7.505149
1978.0,7.505149
1980.0,7.505149
1982.0,7.505149
1984.0,7.505149
1986.0,7.505149
1988.0,7.505149
1990.0,7.408365
1992.0,7.408365
1994.0,7.408365
1996.0,7.408365
1998.0,7.505149
2000.0,7.505149
2002.0,7.505149
2004.0,7.505149
2006.0,7.505149
2008.0,7.505149
2010.0,7.505149
2012.0,7.505149
2014.0,7.408365
2016.0,7.408365
2018.0,7.505149
2020.0,7.601933
2022.0,7.505149
2024.0,7.601933
2026.0,7.505149
2028.0,7.505149
2030.0,7.505149
2032.0,7.505149
2034.0,7.505149
2036.0,7.505149
2038.0,7.505149
2040.0,7.505149
2042.0,7.505149
2044.0,7.505149
2046.0,7.505149
2048.0,7.505149
2050.0,7.505149
2052.0,7.505149
2054.0,7.505149
2056.0,7.505149
2058.0,7.505149
2060.0,7.505149
2062.0,7.505149
2064.0,7.505149
2066.0,7.505149
2068.0,7.505149
2070.0,7.505149
2072.0,7.505149
2074.0,7.505149
2076.0,7.601933
2078.0,7.505149
2080.0,7.505149
2082.0,7.505149
2084.0,7.505149
2122.0,7.311581
2124.0,7.214797
2126.0,7.311581
2128.0,7.214797
2130.0,7.311581
2132.0,7.214797
2134.0,7.214797
2136.0,7.214797
2138.0,7.214797
2140.0,7.214797
2142.0,7.214797
2144.0,7.214797
2150.0,7.601933
2152.0,7.311581
2154.0,7.311581
2156.0,7.214797
2158.0,7.214797
2160.0,7.214797
2162.0,7.214797
2164.0,7.214797
2166.0,7.214797
2168.0,7.214797
2170.0,7.214797
2172.0,7.214797
2174.0,7.214797
2176.0,7.214797
2178.0,7.214797
2180.0,7.214797
2182.0,7.214797
2184.0,7.214797
2186.0,7.214797
2188.0,7.214797
2190.0,7.214797
2192.0,7.214797
2194.0,7.214797
2196.0,7.214797
2198.0,7.214797
2200.0,7.214797
2202.0,7.214797
2204.0,7.214797
2206.0,7.214797
2208.0,7.214797
2210.0,7.214797
2212.0,7.214797
2214.0,7.214797
2216.0,7.214797
2218.0,7.214797
2220.0,7.214797
2222.0,7.311581
2224.0,7.311581
2226.0,7.311581
2228.0,7.311581
2230.0,7.311581
2232.0,7.214797
2234.0,7.214797
2236.0,7.214797
2238.0,7.214797
2240.0,7.311581
2242.0,7.311581
2244.0,7.214797
2246.0,7.214797
2248.0,7.214797
2250.0,7.214797
2252.0,7.214797
2254.0,7.214797
2256.0,7.214797
2258.0,7.214797
2260.0,7.214797
2262.0,7.118013
2264.0,7.214797
2266.0,7.214797
2268.0,7.214797
2270.0,7.214797
2272.0,7.214797
2274.0,7.118013
2276.0,7.118013
2278.0,7.118013
2280.0,7.118013
2282.0,7.118013
2284.0,7.118013
2286.0,7.118013
2288.0,7.118013
2290.0,7.118013
2292.0,7.118013
2294.0,7.118013
2296.0,7.118013
2298.0,7.118013
2300.0,7.118013
2302.0,7.118013
2304.0,7.118013
2306.0,7.118013
2308.0,7.214797
2310.0,7.214797
2312.0,7.214797
2314.0,7.214797
2316.0,7.214797
2318.0,7.214797
2320.0,7.214797
2322.0,7.214797
2324.0,7.214797
2326.0,7.214797
2328.0,7.214797
2330.0,7.214797
2332.0,7.214797
2334.0,7.214797
2336.0,7.118013
2338.0,7.118013
2340.0,7.118013
2342.0,7.214797
2344.0,7.118013
2346.0,7.118013
2348.0,7.118013
2350.0,7.118013
2352.0,7.118013
2354.0,7.118013
2356.0,7.118013
2358.0,7.118013
2360.0,7.118013
2362.0,7.118013
2364.0,7.118013
2366.0,7.118013
2368.0,7.118013
2370.0,7.118013
2372.0,7.118013
2374.0,7.118013
2376.0,7.118013
2378.0,7.118013
2380.0,7.118013
2382.0,7.118013
2384.0,7.118013
2386.0,7.118013
2388.0,7.118013
2390.0,7.118013
2392.0,7.214797
2394.0,7.118013
2396.0,7.118013
2398.0,7.118013
2400.0,7.118013
2402.0,7.118013
2404.0,7.118013
2406.0,7.214797
2408.0,7.214797
2410.0,7.214797
2412.0,7.214797
2414.0,7.214797
2416.0,7.214797
2418.0,7.118013
2420.0,7.118013
2422.0,7.118013
2424.0,7.118013
2426.0,7.118013
2428.0,7.118013
2430.0,7.118013
2432.0,7.214797
2434.0,7.118013
2436.0,7.118013
2438.0,7.118013
2440.0,7.118013
2442.0,7.118013
2444.0,7.118013
2446.0,7.118013
2448.0,7.118013
2450.0,7.118013
2452.0,7.118013
2454.0,7.118013
2456.0,7.118013
2458.0,7.214797
2460.0,7.118013
2462.0,7.118013
2464.0,7.118013
2466.0,7.118013
2468.0,7.118013
2470.0,6.924446
2472.0,6.924446
2474.0,7.02123
2476.0,7.118013
2478.0,7.118013
2480.0,7.118013
2482.0,7.118013
2484.0,7.118013
2486.0,7.118013
2488.0,7.118013
2490.0,7.118013
2492.0,7.118013
2494.0,7.118013
2496.0,7.118013
2498.0,7.118013
2500.0,7.118013
2502.0,7.118013
2504.0,7.118013
2506.0,7.118013
2508.0,7.214797
2510.0,7.118013
2512.0,7.118013
2514.0,7.118013
2516.0,7.118013
2518.0,7.118013
2520.0,7.118013
2522.0,7.118013
2524.0,7.118013
2526.0,7.118013
2528.0,7.118013
2530.0,7.118013
2532.0,7.118013
2534.0,7.118013
2536.0,7.214797
2538.0,7.118013
2540.0,7.118013
2542.0,7.118013
2544.0,7.118013
2546.0,7.118013
2548.0,7.118013
2550.0,7.118013
2552.0,7.118013
2554.0,7.118013
2556.0,7.118013
2558.0,7.118013
2560.0,7.118013
2562.0,7.118013
2564.0,7.02123
2566.0,7.118013
2568.0,7.02123
2570.0,7.02123
2572.0,7.02123
2574.0,7.02123
2576.0,7.02123
2578.0,7.118013
2580.0,7.02123
2582.0,7.02123
2584.0,7.02123
2586.0,7.02123
2588.0,7.02123
2590.0,7.02123
2592.0,7.02123
2594.0,7.02123
2596.0,7.02123
2598.0,7.02123
2600.0,7.02123
2602.0,7.02123
2604.0,7.02123
2606.0,7.118013
2608.0,7.02123
2610.0,7.02123
2612.0,7.02123
2614.0,7.02123
2616.0,7.02123
2618.0,7.118013
2620.0,7.311581
2622.0,7.118013
2624.0,7.118013
2626.0,7.118013
2628.0,7.118013
2630.0,7.118013
2632.0,7.118013
2634.0,7.118013
2636.0,7.118013
2638.0,7.118013
2640.0,7.118013
2642.0,7.118013
2644.0,7.02123
2646.0,7.02123
2648.0,7.02123
2650.0,7.02123
2652.0,7.02123
2654.0,7.118013
2656.0,7.118013
2658.0,7.118013
2660.0,7.118013
2662.0,7.118013
2664.0,7.118013
2666.0,7.02123
2668.0,7.02123
2670.0,7.02123
2672.0,7.02123
2674.0,7.02123
2676.0,7.02123
2678.0,7.02123
2680.0,7.02123
2682.0,7.02123
2684.0,7.02123
2686.0,7.02123
2688.0,7.118013
2690.0,7.02123
2692.0,7.02123
2694.0,7.02123
2696.0,7.02123
2698.0,7.02123
