time,pressure
0.0,132.982313
0.083333,132.991991
0.166667,132.982313
0.224722,132.962956
0.226111,132.962956
0.309444,132.169328
0.392778,131.385379
0.476111,130.843389
0.559167,130.378827
0.6425,129.914264
0.725833,129.536807
0.809167,129.188385
0.8925,128.907712
0.975833,128.627039
1.059167,128.414114
1.1425,128.181833
1.225833,127.988265
1.309167,127.833411
1.3925,127.649522
1.475556,127.514024
1.558889,127.339813
1.642222,127.204316
1.725556,127.05914
1.808889,126.942999
1.892222,126.797824
1.975556,126.681683
2.058889,126.575221
2.142222,126.478437
2.225556,126.352618
2.308889,126.226799
2.391944,126.130015
2.475278,126.033231
2.558611,125.936447
2.641944,125.839663
2.725278,125.752558
2.808611,125.646095
2.891944,125.568668
2.975278,125.462206
3.058611,125.404136
3.141944,125.31703
3.225278,125.220246
3.308333,125.142819
3.391667,125.055714
3.475,124.968608
3.558333,124.871824
3.641667,124.804076
3.725,124.736327
3.808333,124.6589
3.891667,124.562116
3.975,124.513724
4.058333,124.41694
4.141667,124.35887
4.224722,124.271764
4.308056,124.194337
4.391389,124.097554
4.474722,124.039483
4.558056,123.962056
4.641389,123.913664
4.724722,123.836237
4.808056,123.75881
4.891389,123.691061
4.974722,123.623313
5.058056,123.565242
5.141111,123.497493
5.224444,123.439423
5.307778,123.381353
5.391111,123.323283
5.474444,123.255534
5.557778,123.178107
5.641111,123.129715
5.724444,123.052288
5.807778,123.013574
5.891111,122.936147
5.974167,122.868398
6.0575,122.829685
6.140833,122.761936
6.224167,122.674831
6.3075,122.61676
6.390833,122.549012
6.474167,122.50062
6.5575,122.442549
6.640833,122.384479
6.724167,122.326409
6.8075,122.278017
6.890556,122.210268
6.973889,122.152198
7.057222,122.103806
7.140556,122.036057
7.223889,121.968308
7.307222,121.929595
7.390556,121.871524
7.473889,121.823133
7.557222,121.755384
7.640556,121.687635
7.723889,121.629565
7.806944,121.581173
7.890278,121.542459
7.973611,121.484389
8.056944,121.41664
8.140278,121.368248
8.223611,121.319856
8.306944,121.271464
8.390278,121.203716
8.473611,121.145645
8.556944,121.097253
8.640278,121.05854
8.723333,121.00047
8.806667,120.952078
8.89,120.874651
8.973333,120.81658
9.056667,120.768188
9.14,120.70044
9.223333,120.652048
9.306667,120.593977
9.39,120.555264
9.473333,120.506872
9.556667,120.45848
9.639722,120.390731
9.723056,120.342339
9.806389,120.303626
9.889722,120.255234
9.973056,120.177807
10.056389,120.119736
10.139722,120.10038
10.223056,120.042309
10.306389,119.993917
10.389722,119.955204
10.473056,119.897133
10.556111,119.848742
10.639444,119.790671
10.722778,119.751958
10.806111,119.703566
10.889444,119.655174
10.972778,119.61646
11.056111,119.55839
11.139444,119.529355
11.222778,119.471284
11.306111,119.442249
11.389444,119.393857
11.4725,119.345465
11.555833,119.287395
11.639167,119.25836
11.7225,119.209968
11.805833,119.161576
11.889167,119.093827
11.9725,119.064792
12.055833,119.0164
12.139167,118.968008
12.2225,118.938973
12.305833,118.90026
12.388889,118.842189
12.472222,118.793797
12.555556,118.755084
12.638889,118.697013
12.722222,118.6583
12.805556,118.619586
12.888889,118.580873
12.972222,118.522802
13.055556,118.474411
13.138889,118.426019
13.222222,118.396983
13.305278,118.35827
13.388611,118.309878
13.471944,118.271164
13.555278,118.222772
13.638611,118.174381
13.721944,118.145345
13.805278,118.096953
13.888611,118.048562
13.971944,118.009848
14.055278,117.980813
14.138333,117.951778
14.221667,117.913064
14.305,117.854994
14.388333,117.81628
14.471667,117.787245
14.555,117.748532
14.638333,117.680783
14.721667,117.651748
14.805,117.603356
14.888333,117.574321
14.971667,117.535607
15.054722,117.496893
15.138056,117.45818
15.221389,117.419466
15.304722,117.380753
15.388056,117.322682
15.471389,117.293647
15.554722,117.245255
15.638056,117.206542
15.721389,117.167828
15.804722,117.129115
15.888056,117.080723
15.971111,117.042009
16.054444,117.012974
16.137778,116.964582
16.221111,116.925869
16.304444,116.867798
16.387778,116.819406
16.471111,116.751658
16.554444,116.722622
16.637778,116.703266
16.721111,116.703266
16.804444,116.722622
16.8875,116.712944
16.970833,116.741979
17.054167,116.683909
17.1375,116.674231
17.220833,116.674231
17.304167,116.674231
17.3875,116.635517
17.470833,116.61616
17.554167,116.61616
17.6375,116.587125
17.720833,116.548411
17.803889,116.548411
17.887222,116.519376
17.970556,116.50002
18.053889,116.50002
18.137222,116.461306
18.220556,116.441949
18.303889,116.403236
18.387222,116.383879
18.470556,116.364522
18.553889,116.325809
18.636944,116.296773
18.720278,116.267738
18.803611,116.248381
18.886944,116.19999
18.970278,116.170954
19.053611,116.141919
19.136944,116.112884
19.220278,116.093527
19.303611,116.074171
19.386944,116.025779
19.470278,116.006422
19.553333,115.987065
19.636667,115.948351
19.72,115.919316
19.803333,115.890281
19.886667,115.861246
19.97,115.851568
20.053333,115.822532
20.136667,115.783819
20.22,115.754784
20.303333,115.71607
20.386667,115.696713
20.469722,115.638643
20.553056,115.609608
20.636389,115.59993
20.719722,115.551538
20.803056,115.532181
20.886389,115.493467
20.969722,115.493467
21.053056,115.454754
21.136389,115.41604
21.219722,115.387005
21.303056,115.377327
21.386111,115.338613
21.469444,115.319256
21.552778,115.280543
21.636111,115.270864
21.719444,115.241829
21.802778,115.193437
21.886111,115.174081
21.969444,115.145045
22.052778,115.125689
22.136111,115.106332
22.219444,115.067618
22.3025,115.038583
22.385833,115.028905
22.469167,114.99987
22.5525,114.970834
22.635833,114.941799
22.719167,114.932121
22.8025,114.883729
22.885833,114.864372
22.969167,114.845015
23.0525,114.81598
23.135833,114.786945
23.218889,114.767588
23.302222,114.738553
23.385556,114.719196
23.468889,114.670804
23.552222,114.651448
23.635556,114.622412
23.718889,114.603056
23.802222,114.574021
23.885556,114.544985
23.968889,114.506272
24.051944,114.477237
24.135278,114.486915
24.218611,114.45788
24.301944,114.428845
24.385278,114.419166
24.468611,114.39981
24.551944,114.361096
24.635278,114.341739
24.718611,114.312704
24.801944,114.283669
24.885278,114.254634
24.968333,114.244955
25.051667,114.196563
25.135,114.167528
25.218333,114.167528
25.301667,114.128815
25.385,114.109458
25.468333,114.080423
25.551667,114.061066
25.635,114.032031
25.718333,114.012674
25.801667,113.983639
25.884722,113.954604
25.968056,113.925569
26.051389,113.91589
26.134722,113.896533
26.218056,113.867498
26.301389,113.848141
26.384722,113.809428
26.468056,113.780393
26.551389,113.761036
26.634722,113.751358
26.718056,113.702966
26.801111,113.67393
26.884444,113.654574
26.967778,113.644895
27.051111,113.61586
27.134444,113.586825
27.217778,113.55779
27.301111,113.538433
27.384444,113.519076
27.467778,113.49972
27.551111,113.490041
27.634444,113.451328
27.7175,113.441649
27.800833,113.422292
27.884167,113.3739
27.9675,113.364222
28.050833,113.335187
28.134167,113.296473
28.2175,113.296473
28.300833,113.277117
28.384167,113.238403
28.4675,113.209368
28.550833,113.180333
28.633889,113.170654
28.717222,113.131941
28.800556,113.122262
28.883889,113.083549
28.967222,113.07387
29.050556,113.054514
29.133889,113.044835
29.217222,113.006122
29.300556,112.977087
29.383889,112.938373
29.467222,112.948051
29.550278,112.909338
29.633611,112.89966
29.716944,112.870624
29.800278,112.841589
29.883611,112.812554
29.966944,112.812554
30.050278,112.783519
30.133611,112.735127
30.216944,112.735127
30.300278,112.696413
30.383611,112.696413
30.466667,112.638343
30.55,112.638343
30.633333,112.609308
30.716667,112.570594
30.8,112.560916
30.883333,112.531881
30.966667,112.512524
31.05,112.483489
31.133333,112.464132
31.216667,112.435097
31.299722,112.425419
31.383056,112.396383
31.466389,112.367348
31.549722,112.347991
31.633056,112.338313
31.716389,112.309278
31.799722,112.280243
31.883056,112.251208
31.966389,112.241529
32.049722,112.202816
32.133056,112.17378
32.216111,112.17378
32.299444,112.135067
32.382778,112.11571
32.466111,112.096353
32.549444,112.076997
32.632778,112.05764
32.716111,112.028605
32.799444,112.009248
32.882778,111.99957
32.966111,111.970534
33.049444,111.941499
33.1325,111.922142
33.215833,111.87375
33.299167,111.854394
33.3825,111.854394
33.465833,111.825359
33.549167,111.806002
33.6325,111.786645
33.715833,111.747931
33.799167,111.738253
33.8825,111.689861
33.965833,111.660826
34.048889,111.660826
34.132222,111.622112
34.215556,111.602756
34.298889,111.593077
34.382222,111.57372
34.465556,111.544685
34.548889,111.544685
34.632222,111.525329
34.715556,111.505972
34.798889,111.486615
34.882222,111.45758
34.965278,111.45758
35.048611,111.428545
35.131944,111.409188
35.215278,111.389831
35.298611,111.380153
35.381944,111.360796
35.465278,111.341439
35.548611,111.331761
35.631944,111.302726
35.715278,111.283369
35.798611,111.283369
35.881667,111.264012
35.965,111.264012
36.048333,111.234977
36.131667,111.225299
36.215,111.186585
36.298333,111.186585
36.381667,111.15755
36.465,111.128515
36.548333,111.118836
36.631667,111.09948
36.715,111.070444
36.798056,111.051088
36.881389,111.031731
36.964722,111.022052
37.048056,110.993017
37.131389,110.983339
37.214722,110.944625
37.298056,110.905912
37.381389,110.934947
37.464722,110.905912
37.548056,110.876877
37.631389,110.867198
37.714444,110.847841
37.797778,110.818806
37.881111,110.809128
37.964444,110.770414
38.047778,110.760736
38.131111,110.731701
38.214444,110.712344
38.297778,110.702666
38.381111,110.67363
38.464444,110.654274
38.5475,110.625239
38.630833,110.61556
38.714167,110.605882
38.7975,110.576847
38.880833,110.567168
38.964167,110.538133
39.0475,110.528455
39.130833,110.518776
39.214167,110.480063
39.2975,110.460706
39.380833,110.451028
39.463889,110.431671
39.547222,110.402636
39.630556,110.392957
39.713889,110.363922
39.797222,110.344565
39.880556,110.334887
39.963889,110.305852
40.047222,110.286495
40.130556,110.25746
40.213889,110.25746
40.297222,110.228425
40.380278,110.209068
40.463611,110.170354
40.546944,110.160676
40.630278,110.150998
40.713611,110.121962
40.796944,110.102606
40.880278,110.092927
40.963611,110.054214
41.046944,110.044535
41.130278,110.025179
41.213611,110.005822
41.296667,110.005822
41.38,109.967108
41.463333,109.947751
41.546667,109.928395
41.63,109.909038
41.713333,109.899359
41.796667,109.860646
41.88,109.850968
41.963333,109.841289
42.046667,109.831611
42.13,109.792897
42.213056,109.792897
42.296389,109.77354
42.379722,109.763862
42.463056,109.734827
42.546389,109.705792
42.629722,109.686435
42.713056,109.676757
42.796389,109.647721
42.879722,109.638043
42.963056,109.599329
43.046389,109.609008
43.129444,109.579973
43.212778,109.560616
43.296111,109.541259
43.379444,109.521902
43.462778,109.492867
43.546111,109.502546
43.629444,109.463832
43.712778,109.454154
43.796111,109.444475
43.879444,109.405762
43.962778,109.396083
44.045833,109.376727
44.129167,109.367048
44.2125,109.338013
44.295833,109.318656
44.379167,109.308978
44.4625,109.289621
44.545833,109.279943
44.629167,109.260586
44.7125,109.241229
44.795833,109.202516
44.878889,109.192837
44.962222,109.163802
45.045556,109.163802
45.128889,109.144445
45.212222,109.125089
45.295556,109.096053
45.378889,109.076697
45.462222,109.076697
45.545556,109.05734
45.628889,109.037983
45.712222,109.018626
45.795278,108.999269
45.878611,108.979913
45.961944,108.960556
46.045278,108.950878
46.128611,108.931521
46.211944,108.931521
46.295278,108.883129
46.378611,108.883129
46.461944,108.863772
46.545278,108.854094
46.628611,108.834737
46.711667,108.81538
46.795,108.786345
46.878333,108.776667
46.961667,108.75731
47.045,108.728275
47.128333,108.728275
47.211667,108.699239
47.295,108.679883
47.378333,108.660526
47.461667,108.650848
47.545,108.583099
47.628056,108.534707
47.711389,108.486315
47.794722,108.466958
47.878056,108.437923
47.961389,108.389531
48.044722,108.360496
48.128056,108.331461
48.211389,108.292747
48.294722,108.263712
48.378056,108.195963
48.461389,108.176607
48.544444,108.137893
48.627778,108.108858
48.711111,108.099179
48.794444,108.070144
48.877778,108.050788
48.961111,108.031431
49.044444,108.021752
49.127778,108.002396
49.211111,107.992717
49.294444,107.97336
49.377778,107.944325
49.460833,107.924969
49.544167,107.934647
49.6275,107.895933
49.710833,107.876577
49.794167,107.847541
49.8775,107.818506
49.960833,107.789471
50.044167,107.760436
50.1275,107.731401
50.210833,107.702366
50.294167,107.67333
50.377222,107.653974
50.460556,107.634617
50.543889,107.605582
50.627222,107.576547
50.710556,107.547511
50.793889,107.537833
50.877222,107.518476
50.960556,107.499119
51.043889,107.470084
51.127222,107.450728
51.210556,107.412014
51.293611,107.392657
51.376944,107.382979
51.460278,107.344265
51.543611,107.334587
51.626944,107.324908
51.710278,107.286195
51.793611,107.276517
51.876944,107.228125
51.960278,107.199089
52.043611,107.170054
52.126667,107.141019
52.21,107.131341
52.293333,107.102306
52.376667,107.082949
52.46,107.053914
52.543333,107.024878
52.626667,107.024878
52.71,106.986165
52.793333,106.966808
52.876667,106.95713
52.96,106.928095
53.043056,106.908738
53.126389,106.889381
53.209722,106.870024
53.293056,106.840989
53.376389,106.831311
53.459722,106.821632
53.543056,106.792597
53.626389,106.77324
53.709722,106.744205
53.793056,106.695813
53.876389,106.705492
53.959444,106.676457
54.042778,106.666778
54.126111,106.628065
54.209444,106.628065
54.292778,106.589351
54.376111,106.569994
54.459444,106.560316
54.542778,106.550638
54.626111,106.502246
54.709444,106.492567
54.792778,106.47321
54.875833,106.434497
54.959167,106.434497
55.0425,106.405462
55.125833,106.386105
55.209167,106.366748
55.2925,106.328035
55.375833,106.318356
55.459167,106.298999
55.5425,106.260286
55.625833,106.260286
55.709167,106.231251
55.792222,106.221572
55.875556,106.182859
55.958889,106.153824
56.042222,106.124788
56.125556,106.105432
56.208889,106.086075
56.292222,106.066718
56.375556,106.037683
56.458889,106.018326
56.542222,105.989291
56.625556,105.979613
56.708611,105.960256
56.791944,105.931221
56.875278,105.921542
56.958611,105.902186
57.041944,105.882829
57.125278,105.863472
57.208611,105.824758
57.291944,105.81508
57.375278,105.786045
57.458611,105.766688
57.541944,105.747331
57.625,105.727975
57.708333,105.698939
57.791667,105.679583
57.875,105.660226
57.958333,105.650548
58.041667,105.640869
58.125,105.611834
58.208333,105.592477
58.291667,105.57312
58.375,105.553764
58.458333,105.534407
58.541389,105.524728
58.624722,105.524728
58.708056,105.486015
58.791389,105.476337
58.874722,105.447301
58.958056,105.418266
59.041389,105.408588
59.124722,105.389231
59.208056,105.379553
59.291389,105.350518
59.374444,105.321482
59.457778,105.302126
59.541111,105.292447
59.624444,105.263412
59.707778,105.234377
59.791111,105.21502
59.874444,105.195663
59.957778,105.166628
60.041111,105.137593
60.124444,105.127915
60.207778,105.108558
60.290833,105.079523
60.374167,105.069844
60.4575,105.060166
60.540833,105.031131
60.624167,105.002096
60.7075,104.982739
60.790833,104.944025
60.874167,104.924668
60.9575,104.934347
61.040833,104.895633
61.124167,104.885955
61.207222,104.847241
61.290556,104.827885
61.373889,104.798849
61.457222,104.798849
61.540556,104.760136
61.623889,104.750458
61.707222,104.731101
61.790556,104.702066
61.873889,104.692387
61.957222,104.682709
62.040556,104.643995
62.123611,104.61496
62.206944,104.576247
62.290278,104.518176
62.373611,104.479463
62.456944,104.440749
62.540278,104.402036
62.623611,104.382679
62.706944,104.353644
62.790278,104.31493
62.873611,104.295573
62.956944,104.266538
63.04,104.247181
63.123333,104.189111
63.206667,104.169754
63.29,104.160076
63.373333,104.131041
63.456667,104.111684
63.54,104.082649
63.623333,104.07297
63.706667,104.043935
63.79,104.024578
63.873333,104.0149
63.956389,103.995543
64.039722,103.976187
64.123056,103.947151
64.206389,103.947151
64.289722,103.927795
64.373056,103.927795
64.456389,103.889081
64.539722,103.860046
64.623056,103.850367
64.706389,103.811654
64.789722,103.811654
64.872778,103.782619
64.956111,103.763262
65.039444,103.734227
65.122778,103.71487
65.206111,103.676157
65.289444,103.666478
65.372778,103.6568
65.456111,103.637443
65.539444,103.627765
65.622778,103.608408
65.705833,103.598729
65.789167,103.579373
65.8725,103.579373
65.955833,103.569694
66.039167,103.550337
66.1225,103.521302
66.205833,103.511624
66.289167,103.482589
66.3725,103.47291
66.455833,103.463232
66.539167,103.453554
66.622222,103.434197
66.705556,103.395483
66.788889,103.385805
66.872222,103.366448
66.955556,103.347091
67.038889,103.337413
67.122222,103.318056
67.205556,103.308378
67.288889,103.279343
67.372222,103.250307
67.455556,103.240629
67.538611,103.221272
67.621944,103.17288
67.705278,103.221272
67.788611,103.269664
67.871944,103.308378
67.955278,103.327735
68.038611,103.347091
68.121944,103.366448
68.205278,103.395483
68.288611,103.395483
68.371944,103.385805
68.455,103.395483
68.538333,103.395483
68.621667,103.395483
68.705,103.395483
68.788333,103.376127
68.871667,103.385805
68.955,103.385805
69.038333,103.385805
69.121667,103.366448
69.205,103.347091
69.288333,103.366448
69.371389,103.347091
69.454722,103.347091
69.538056,103.337413
69.621389,103.308378
69.704722,103.308378
69.788056,103.318056
69.871389,103.279343
69.954722,103.269664
70.038056,103.250307
70.121389,103.250307
70.204722,103.221272
70.287778,103.211594
70.371111,103.17288
70.454444,103.17288
70.537778,103.163202
70.621111,103.143845
70.704444,103.134167
70.787778,103.124488
70.871111,103.105132
70.954444,103.085775
71.037778,103.076097
71.121111,103.066418
71.204167,103.037383
71.2875,103.047061
71.370833,103.018026
71.454167,103.008348
71.5375,102.988991
71.620833,102.979313
71.704167,102.959956
71.7875,102.950277
71.870833,102.921242
71.954167,102.921242
72.0375,102.911564
72.120556,102.892207
72.203889,102.892207
72.287222,102.87285
72.370556,102.863172
72.453889,102.834137
72.537222,102.81478
72.620556,102.81478
72.703889,102.795423
72.787222,102.785745
72.870556,102.776067
72.953611,102.75671
73.036944,102.75671
73.120278,102.737353
73.203611,102.708318
73.286944,102.688961
73.370278,102.669604
73.453611,102.659926
73.536944,102.640569
73.620278,102.630891
73.703611,102.621212
73.786944,102.601856
73.87,102.582499
73.953333,102.57282
74.036667,102.543785
74.12,102.553464
74.203333,102.534107
74.286667,102.524428
74.37,102.495393
74.453333,102.485715
74.536667,102.476037
74.62,102.476037
74.703333,102.45668
74.786389,102.427645
74.869722,102.417966
74.953056,102.398609
75.036389,102.379253
75.119722,102.379253
75.203056,102.359896
75.286389,102.350217
75.369722,102.311504
75.453056,102.311504
75.536389,102.301826
75.619722,102.292147
75.702778,102.263112
75.786111,102.263112
75.869444,102.224398
75.952778,102.21472
76.036111,102.195363
76.119444,102.195363
76.202778,102.176007
76.286111,102.176007
76.369444,102.137293
76.452778,102.117936
76.536111,102.108258
76.619167,102.098579
76.7025,102.079223
76.785833,102.069544
76.869167,102.050187
76.9525,102.030831
77.035833,102.030831
77.119167,102.011474
77.2025,102.001796
77.285833,101.992117
77.369167,101.963082
77.4525,101.943725
77.535556,101.953404
77.618889,101.934047
77.702222,101.895333
77.785556,101.895333
77.868889,101.885655
77.952222,101.85662
78.035556,101.846941
78.118889,101.837263
78.202222,101.808228
78.285556,101.817906
78.368611,101.779193
78.451944,101.769514
78.535278,101.759836
78.618611,101.730801
78.701944,101.711444
78.785278,101.692087
78.868611,101.67273
78.951944,101.663052
79.035278,101.653374
79.118611,101.624338
79.201944,101.61466
79.285,101.604982
79.368333,101.595303
79.451667,101.566268
79.535,101.546911
79.618333,101.537233
79.701667,101.517876
79.785,101.508198
79.868333,101.479163
79.951667,101.469484
80.035,101.450127
80.118333,101.450127
80.201389,101.421092
80.284722,101.401736
80.368056,101.401736
80.451389,101.382379
80.534722,101.363022
80.618056,101.353344
80.701389,101.343665
80.784722,101.31463
80.868056,101.304952
80.951389,101.304952
81.034722,101.275917
81.117778,101.275917
