time,pressure
0.0,85.687814
0.473611,85.639422
1.001111,85.620065
1.476389,85.59103
2.010833,85.561995
2.488056,85.494246
3.003333,85.445854
3.5175,85.40714
3.976944,85.358748
5.023889,85.261964
5.262778,85.232929
5.744444,85.203893
6.223056,85.145823
6.743333,85.107109
7.463333,85.058717
8.005833,85.010325
8.438889,84.990968
8.999167,84.961933
9.490833,84.913541
10.204167,84.826435
10.9675,84.7974
11.501944,84.768365
12.046944,84.729651
12.471111,84.710294
12.988889,84.671581
13.539167,84.61351
13.996111,84.584475
14.490833,84.55544
14.976389,84.526405
15.486944,84.497369
16.038056,84.468334
16.456389,84.429621
17.005,84.390907
17.525278,84.361872
18.051667,84.332836
18.512222,84.31348
18.998611,84.274766
19.501389,84.245731
20.271667,84.207017
20.769444,84.18766
21.254167,84.148947
21.788889,84.12959
22.037778,84.100555
22.8575,84.023127
23.333056,83.974735
23.828056,83.936022
24.31,83.877951
24.841389,83.819881
25.274167,83.790845
25.825556,83.752132
26.531944,83.70374
27.054444,83.674705
27.781667,83.606956
28.290278,83.57792
28.834444,83.548885
29.329722,83.51985
29.800556,83.500493
30.601944,83.452101
31.166389,83.403709
31.808056,83.355317
32.775,83.316603
33.323889,83.27789
33.808889,83.239176
34.552222,83.219819
35.035556,83.200462
35.525833,83.200462
36.061111,83.161749
36.518889,83.123035
37.025,83.103678
37.501667,83.064965
38.068056,83.045608
38.511944,83.006894
39.243056,82.968181
39.764444,82.929467
40.309167,82.919788
40.840278,82.900432
41.361389,82.900432
42.051944,82.842361
42.58,82.813326
43.003056,82.793969
43.833889,82.755255
44.34,82.735899
44.790833,82.72622
45.536944,82.687507
46.061389,82.658471
46.811944,82.629436
47.358333,82.610079
47.811111,82.610079
48.295278,82.610079
48.826111,82.600401
49.363889,82.600401
50.635,82.54233
51.660278,82.522974
52.102222,82.522974
52.555,82.522974
53.0575,82.503617
54.103333,82.493938
54.82,82.455225
55.65,82.416511
56.326111,82.397154
57.366667,82.339084
57.850556,82.30037
58.831944,82.281013
59.3275,82.261656
59.816389,82.2423
60.316944,82.222943
60.821389,82.222943
61.333611,82.213264
62.08,82.193908
62.554444,82.184229
63.085278,82.155194
63.884167,82.097124
64.335,82.087445
64.732778,82.087445
64.815,82.087445
65.067778,82.087445
65.588889,82.087445
66.124444,82.077767
67.081389,82.077767
67.59,82.087445
68.129167,82.077767
68.659444,82.068088
69.093611,82.05841
70.410278,82.048731
71.141389,82.039053
72.1375,82.048731
72.576389,82.029375
73.103889,82.010018
74.153611,81.990661
74.597222,81.980983
75.07,81.971304
75.626944,81.951947
76.141111,81.942269
76.560556,81.922912
77.092222,81.922912
77.5775,81.884198
78.116944,81.884198
78.601389,81.87452
79.300556,81.884198
79.897778,81.87452
80.345833,81.855163
80.861111,81.845485
81.880833,81.787414
82.370278,81.777736
82.868056,81.777736
83.462222,81.787414
84.135556,81.777736
84.551944,81.758379
85.078611,81.758379
85.6,81.758379
86.122778,81.758379
86.559444,81.758379
87.070833,81.758379
87.585833,81.777736
88.338333,81.768058
88.825278,81.758379
89.301111,81.748701
89.641389,81.680952
90.152222,81.642238
90.648611,81.603525
91.099167,81.574489
91.616111,81.564811
92.065,81.545454
92.565,81.535776
93.095556,81.516419
94.089444,81.44867
95.097222,81.409956
95.633333,81.390599
96.148333,81.361564
96.620833,81.371243
97.159444,81.361564
97.6175,81.361564
98.351944,81.361564
98.878889,81.361564
99.37,81.342207
99.860556,81.313172
100.375833,81.274459
100.870278,81.255102
101.388889,81.255102
102.136111,81.235745
103.585278,81.197031
104.356944,81.158318
104.888889,81.167996
105.596667,81.148639
106.159444,81.138961
106.853333,81.119604
107.439444,81.100247
107.934722,81.090569
108.629722,81.08089
109.115,81.08089
109.623333,81.071212
110.127222,81.061534
110.584444,81.061534
111.144722,81.042177
111.640278,81.003463
112.325556,81.003463
112.890556,81.003463
113.348056,81.013141
114.167778,80.974428
114.875278,80.964749
115.397222,80.955071
115.909167,80.945393
116.356667,80.926036
117.340556,80.906679
118.446667,80.897001
118.935556,80.887322
119.373889,80.897001
119.944167,80.887322
120.679444,80.887322
121.168056,80.858287
121.633056,80.83893
122.162222,80.809895
122.910278,80.809895
123.3675,80.800216
123.893889,80.790538
124.359444,80.78086
124.866389,80.78086
125.661389,80.761503
126.391389,80.751824
127.328611,80.742146
127.888333,80.713111
128.652778,80.684075
129.151111,80.684075
129.635556,80.674397
130.164722,80.635683
130.650278,80.626005
131.180278,80.626005
131.655278,80.616327
131.886944,80.626005
131.991944,80.626005
132.104722,80.626005
132.150833,80.65504
132.668889,80.664719
133.172778,80.645362
133.651389,80.645362
134.1525,80.674397
134.655278,80.65504
135.134444,80.65504
136.159167,80.684075
137.130278,80.645362
137.636944,80.645362
138.168889,80.674397
139.143333,80.713111
139.927222,80.722789
140.369444,80.722789
140.956389,80.703432
141.629167,80.703432
142.433611,80.693754
142.96,80.703432
143.421944,80.703432
144.198889,80.693754
144.680556,80.703432
145.120833,80.703432
145.668056,80.693754
146.384444,80.693754
146.931667,80.684075
147.178333,80.684075
147.708056,80.664719
148.248333,80.65504
148.670833,80.664719
149.190278,80.664719
149.725556,80.674397
150.242778,80.65504
150.744722,80.626005
151.336944,80.616327
151.931944,80.606648
152.410833,80.59697
152.943611,80.577613
153.4725,80.587291
153.933056,80.587291
154.39,80.558256
154.936667,80.538899
155.405,80.509864
155.943611,80.519543
156.389167,80.500186
156.734722,80.451794
157.193889,80.393723
158.2675,80.316296
158.693333,80.296939
159.2225,80.267904
159.692778,80.248547
160.208889,80.22919
160.666111,80.22919
161.145,80.200155
161.963611,80.151763
162.453889,80.122728
163.177222,80.113049
163.679167,80.103371
164.190556,80.103371
164.685278,80.084014
165.218611,80.084014
165.453611,80.084014
165.954722,80.084014
166.431389,80.054979
166.973333,80.064657
167.43,80.074336
167.988333,80.074336
168.451944,80.084014
168.986667,80.074336
169.438333,80.0453
169.935,80.054979
170.440833,80.054979
170.968333,80.054979
171.445278,80.0453
172.025,80.0453
172.460278,80.0453
172.999444,80.025944
173.512778,79.996908
174.026111,79.996908
174.453611,79.98723
175.015556,79.977551
175.708611,79.967873
176.268056,79.948516
176.7125,79.929159
177.23,79.919481
177.749722,79.900124
178.257222,79.900124
179.015,79.890446
179.465278,79.880767
180.278889,79.851732
180.680556,79.842054
181.201111,79.813018
181.711389,79.80334
182.209444,79.813018
182.716944,79.80334
183.238056,79.774305
183.491111,79.764626
184.267778,79.754948
184.668333,79.735591
185.265833,79.706556
185.494167,79.696878
185.965833,79.677521
186.467222,79.648486
187.005833,79.629129
187.449167,79.629129
187.9925,79.609772
188.456667,79.590415
189.230278,79.571058
189.727222,79.551701
190.451667,79.532345
191.036944,79.512988
191.484167,79.512988
192.289167,79.503309
192.721944,79.493631
193.256667,79.483953
194.016389,79.474274
194.508611,79.454917
194.974444,79.445239
195.511667,79.43556
195.977778,79.416204
196.547778,79.416204
197.073889,79.416204
197.471944,79.396847
198.109444,79.37749
198.441667,79.387168
198.947778,79.387168
198.981667,79.37749
199.090278,79.37749
199.1875,79.37749
199.6425,79.387168
199.986389,79.406525
200.553333,79.406525
200.981389,79.416204
201.447222,79.425882
201.986944,79.425882
202.456944,79.445239
202.986111,79.464596
203.403611,79.474274
203.955556,79.483953
204.547222,79.493631
205.258056,79.474274
206.221944,79.464596
206.984167,79.445239
207.710833,79.445239
209.28,79.416204
209.991389,79.396847
210.740278,79.387168
211.206944,79.387168
211.737778,79.37749
212.199722,79.367812
212.717778,79.367812
213.220833,79.348455
213.976944,79.31942
214.491667,79.309741
214.999722,79.290384
215.483611,79.290384
216.015556,79.309741
216.761389,79.300063
217.278056,79.290384
217.747778,79.300063
218.256944,79.290384
218.746389,79.290384
219.259722,79.290384
219.724444,79.261349
220.277778,79.271027
220.752222,79.261349
221.300278,79.251671
221.507222,79.241992
222.025833,79.212957
222.485833,79.232314
223.0025,79.241992
223.384722,79.232314
224.041944,79.183922
224.529444,79.154887
225.049444,79.13553
225.496389,79.106494
226.511389,79.058102
227.2575,79.038746
228.024444,79.00971
228.471389,78.990354
229.525,78.970997
230.021389,78.970997
231.416389,78.980675
232.302222,78.903248
232.805833,78.883891
233.503889,78.874213
234.300278,78.854856
234.774444,78.854856
235.249722,78.845177
236.283611,78.806464
236.773889,78.796785
237.508333,78.76775
238.049167,78.758072
238.544167,78.777429
239.071667,78.777429
239.596944,78.76775
240.085833,78.76775
240.5525,78.777429
241.105278,78.777429
241.822222,78.777429
242.810556,78.777429
243.274722,78.777429
243.809167,78.758072
244.358889,78.738715
244.846944,78.738715
245.313889,78.729036
245.555833,78.738715
246.321111,78.748393
247.098333,78.690323
247.750278,78.690323
248.326944,78.690323
248.792222,78.670966
249.305278,78.651609
249.816111,78.670966
250.286111,78.670966
250.800556,78.680644
251.578889,78.670966
252.08,78.661288
252.551389,78.661288
253.067778,78.661288
253.855,78.603217
254.523611,78.593539
255.518611,78.574182
256.086111,78.58386
256.614444,78.564503
257.081389,78.574182
257.571944,78.554825
258.105556,78.554825
258.811667,78.535468
259.3275,78.545147
260.309444,78.535468
260.824167,78.506433
261.328056,78.487076
261.818889,78.467719
262.336944,78.458041
262.886667,78.429006
263.36,78.419327
263.826667,78.429006
264.39,78.438684
265.1325,78.419327
266.098333,78.390292
266.606944,78.370935
267.575556,78.419327
268.575833,78.554825
269.084444,78.632252
270.124167,78.729036
270.566667,78.787107
271.107778,78.845177
271.465556,78.874213
272.113889,78.970997
273.391944,79.038746
274.346667,79.087138
275.105556,79.116173
275.562778,79.13553
276.2425,79.154887
276.66,79.174243
277.120556,79.1936
277.638611,79.203279
278.11,79.203279
278.597222,79.203279
279.525,79.212957
280.139167,79.232314
280.608889,79.241992
281.143889,79.241992
281.836944,79.280706
282.366667,79.290384
283.1675,79.290384
283.856111,79.309741
284.365,79.31942
285.150278,79.338776
286.125556,79.348455
287.156667,79.348455
287.619444,79.348455
288.107778,79.367812
288.610278,79.367812
289.193611,79.37749
289.674722,79.37749
290.163056,79.367812
290.691944,79.387168
291.163889,79.396847
291.662222,79.406525
292.152778,79.425882
292.656389,79.425882
293.150833,79.416204
293.908333,79.37749
294.403333,79.338776
295.098611,79.309741
296.132222,79.261349
296.612778,79.212957
297.179167,79.183922
298.414167,79.125851
299.522778,79.067781
300.759444,78.670966
301.080556,78.467719
301.569722,78.187045
302.046944,77.906372
302.559167,77.645054
303.597778,77.112742
304.004167,76.957887
304.513889,76.744962
304.97,76.561072
305.797778,76.261042
306.135,76.144901
306.582778,76.009403
307.391389,75.777121
307.858333,75.651302
308.629167,75.448055
309.1075,75.341593
309.921111,75.157703
310.378889,75.041562
311.178333,74.857672
311.570556,74.760888
311.984722,74.673782
312.418333,74.596355
312.894167,74.499571
313.273889,74.402787
313.717222,74.325359
314.110278,74.267289
314.52,74.189862
314.925556,74.131791
315.541389,74.01565
315.946111,73.947901
316.441389,73.899509
316.820833,73.851117
317.358333,73.754333
317.816944,73.686584
318.200556,73.628514
318.626111,73.560765
319.575833,73.425267
319.943333,73.367197
320.314722,73.318805
320.797222,73.260734
321.2425,73.212342
321.678889,73.173629
322.116389,73.134915
322.539444,73.10588
322.965556,73.057488
323.419722,73.028452
323.831944,72.989739
324.285556,72.951025
324.738889,72.912311
325.120278,72.863919
325.539167,72.815527
326.242222,72.776814
326.711944,72.728422
327.311944,72.670351
328.104722,72.612281
328.468889,72.563889
328.902778,72.525175
329.420278,72.49614
329.843611,72.457426
330.330556,72.428391
330.749722,72.399356
331.159722,72.37032
331.615556,72.341285
332.050278,72.31225
332.469444,72.263858
332.858889,72.234823
333.275556,72.205787
333.935833,72.138039
334.613889,72.089646
335.078056,72.050933
335.508611,72.021898
336.098333,71.983184
336.578611,71.954149
337.044167,71.934792
337.696667,71.896078
338.384167,71.857365
338.926667,71.818651
339.376111,71.789616
339.845833,71.770259
340.238056,71.760581
340.65,71.721867
341.118611,71.683153
341.706667,71.64444
342.159722,71.615404
342.590556,71.586369
342.9125,71.567012
343.329722,71.528299
344.636944,71.46055
345.050833,71.412158
345.316944,71.412158
345.435278,71.412158
345.484722,71.383122
345.588333,71.383122
345.907222,71.363766
346.280833,71.344409
346.681111,71.33473
347.086111,71.325052
347.710556,71.305695
348.319444,71.27666
349.140556,71.228268
349.5475,71.208911
349.924722,71.189554
350.286667,71.179876
350.614167,71.160519
350.964167,71.150841
351.385278,71.112127
351.76,71.073413
352.135278,71.054056
352.507222,71.044378
352.898889,71.0347
353.298056,71.0347
353.656111,71.005664
354.026111,70.986308
354.421111,70.966951
354.779722,70.957272
355.148889,70.937916
355.490833,70.918559
355.870556,70.90888
356.458611,70.889524
356.755,70.870167
357.111667,70.860488
357.460278,70.85081
357.8275,70.831453
358.183056,70.821775
358.5925,70.792739
358.916111,70.783061
359.288611,70.773383
359.888611,70.744347
360.210556,70.724991
360.598333,70.705634
360.959167,70.686277
361.271111,70.66692
361.59,70.647563
361.969722,70.637885
362.316111,70.618528
362.675278,70.599171
362.98,70.589493
363.365278,70.560458
363.971111,70.521744
364.414167,70.48303
364.806389,70.453995
365.155278,70.42496
365.558611,70.405603
365.978333,70.376568
366.258889,70.366889
366.678333,70.337854
367.254444,70.318497
367.964167,70.270105
368.364167,70.260427
368.7725,70.221713
369.321944,70.202356
369.666667,70.163643
370.040833,70.153964
370.438333,70.153964
370.850278,70.134607
371.439167,70.115251
371.832222,70.095894
372.24,70.076537
372.629444,70.066859
373.203333,70.05718
373.531944,70.037823
373.997778,70.008788
374.368611,69.99911
374.771111,69.970074
375.153056,69.950718
375.5875,69.931361
376.000278,69.912004
376.568889,69.853934
376.945,69.844255
377.303611,69.844255
377.685556,69.824898
377.971944,69.81522
378.386667,69.805541
378.771667,69.81522
379.145,69.786185
379.535,69.786185
379.933889,69.766828
380.354722,69.776506
380.734444,69.766828
381.110556,69.747471
381.481667,69.737793
381.896389,69.728114
383.456944,69.650687
383.888056,69.63133
384.493611,69.602295
384.923889,69.582938
385.7575,69.534546
386.118611,69.524868
386.541389,69.524868
386.9175,69.495832
387.582778,69.486154
388.036667,69.466797
388.561111,69.437762
388.958056,69.418405
389.358333,69.399048
389.910833,69.38937
390.379722,69.360335
390.923056,69.311943
391.9425,69.244194
392.316667,69.244194
392.744167,69.224837
393.4275,69.195802
393.838333,69.186123
394.2375,69.166766
394.623611,69.14741
395.033056,69.128053
395.424444,69.089339
395.811111,69.089339
396.206667,69.069982
396.666389,69.031269
397.0325,69.02159
397.405833,69.002233
397.779722,68.982877
398.156111,68.973198
398.53,68.944163
399.063333,68.944163
399.454444,68.924806
399.7875,68.905449
400.194167,68.876414
400.554444,68.857057
400.921667,68.8377
401.323889,68.818344
401.711389,68.798987
402.109444,68.77963
402.927222,68.731238
403.2825,68.711881
403.674167,68.702203
404.115,68.673167
404.513333,68.653811
404.873333,68.634454
405.287778,68.605418
405.705278,68.576383
406.0075,68.566705
406.405,68.547348
406.792222,68.527991
407.104722,68.518313
407.469167,68.498956
408.203889,68.469921
408.614167,68.460242
409.057778,68.440886
409.548889,68.402172
409.901389,68.373137
410.516667,68.344101
410.91,68.334423
411.363889,68.305388
411.701944,68.295709
3208.9925,100.892598
3209.299722,98.618171
3209.689722,95.937251
3210.328056,92.598199
3210.818611,90.546376
3211.368056,88.407448
3211.761389,87.004078
3212.189167,85.658779
3212.582778,84.468334
3213.019444,83.306925
3213.643056,81.777736
3214.035833,80.906679
3214.463611,79.98723
3214.832222,79.232314
3215.215833,78.477398
3215.626944,77.654733
3216.047222,76.851425
3216.394444,76.222328
3216.800833,75.515804
3217.424722,74.538284
3217.933611,73.793047
3218.293333,73.251056
3218.724722,72.621959
3219.134167,72.041254
3219.681667,71.247625
3220.121944,70.637885
3220.795,69.824898
3221.203889,69.350656
3221.637778,68.886092
3222.009167,68.508634
3222.361944,70.124929
3222.773056,69.050625
3223.165556,68.450564
3223.563056,67.947287
3223.956111,67.492401
3224.373611,67.211727
3224.775556,67.153657
3225.169444,67.047194
3225.775,67.19237
3226.148333,67.366582
3226.254167,67.366582
3226.324722,67.685969
3226.461667,67.685969
3226.703889,68.015035
3227.101944,68.324745
3227.523611,68.557026
3227.933056,68.769951
3228.510556,68.895771
3228.523611,68.895771
3228.606944,69.089339
3228.711389,69.089339
3228.751389,69.14741
3228.912222,69.20548
3229.529167,69.38937
3230.116389,69.534546
3230.518333,69.63133
3230.886389,69.650687
3230.909444,69.650687
3230.992778,69.679722
3231.091944,69.679722
3231.146111,69.718436
3231.298056,69.728114
3231.736389,69.766828
3232.445278,69.689401
3232.920556,69.399048
3233.2675,69.302264
3233.301389,69.302264
3233.440556,69.302264
3233.497778,69.302264
3233.733889,68.847379
3234.119722,68.566705
3234.516111,68.247317
3234.905556,67.898894
3235.320833,67.50208
3235.631111,67.308511
3235.6925,67.308511
3235.779722,67.085908
3235.907778,67.085908
3236.358333,66.437454
3236.758611,65.943855
3237.146667,65.498649
3237.5725,65.034085
3237.933611,64.850195
3237.993333,64.656627
3238.121944,64.656627
3238.155278,64.424345
3238.391944,64.172706
3238.934722,63.611358
3239.481944,63.050011
3240.041389,62.527376
3241.04,61.656319
3241.456111,61.327253
3241.9525,60.940117
3242.348056,60.640086
3242.756389,60.204558
3243.195,59.430285
3243.583889,58.917329
3243.913056,58.578585
3244.341389,58.162413
3244.763333,57.794633
3245.205,57.504281
3245.652222,57.175215
3245.831944,57.175215
3245.907222,57.068753
3246.035278,57.068753
3246.065833,56.933255
3246.495833,56.642902
3246.890556,56.410621
3247.313056,56.178339
3247.928611,55.86863
3248.257778,55.74281
3248.386389,55.68474
3248.430833,55.626669
3248.548333,55.626669
3248.606944,55.626669
3248.689722,55.520207
3249.274167,55.171784
3249.661667,54.997573
3250.069444,54.823361
3250.484722,54.64915
3250.793611,54.571722
3250.841667,54.571722
3250.868611,54.494295
3250.994444,54.494295
3251.035,54.494295
3251.266389,54.358797
3251.893889,54.155551
3252.229722,53.991018
3252.639167,53.85552
3253.111667,53.739379
3253.1475,53.632917
3253.3375,53.632917
3253.361111,53.526454
3253.578333,53.449027
3253.970556,53.294172
3254.343333,53.148996
3254.774444,53.013498
3255.156667,52.907036
3255.546389,52.848965
3255.72,52.848965
3255.755278,52.829608
3256.871944,52.558613
3257.261944,52.345688
3257.622222,52.248904
3257.980278,52.219869
3258.075278,52.171477
3258.260278,52.094049
3258.626111,51.977908
3259.043611,51.890803
3259.41,51.842411
3259.811111,51.716591
3260.228333,51.687556
3260.345833,51.687556
3260.400278,51.619807
3260.489167,51.619807
3260.766667,51.561737
3261.536389,51.426239
3261.896944,51.377847
3262.261389,51.339133
3262.625833,51.310098
3262.728056,51.310098
3262.913889,51.290741
3263.300278,51.1746
3264.099167,50.961675
3264.474722,50.855213
3264.896111,50.787464
3264.991944,50.787464
3265.059444,50.787464
3265.086111,50.768107
3265.190833,50.768107
3265.675556,50.681001
3266.045556,50.681001
3266.4575,50.681001
3266.885556,50.681001
3267.240833,50.671323
3267.289722,50.642288
3267.3975,50.642288
3267.446111,50.642288
3267.535833,50.632609
3268.110556,50.56486
3268.525,50.50679
3268.977222,50.419684
3269.395833,50.293865
3269.633056,50.26483
3269.778611,50.26483
3269.793333,50.26483
3269.929722,50.26483
3270.239167,50.168045
3270.638333,50.100297
3271.052778,49.984156
3271.474722,49.945442
3271.912222,49.89705
3272.140833,49.858336
3272.289167,49.858336
3272.564444,49.771231
3272.97,49.684125
3273.369444,49.567984
3273.768611,49.422808
3274.1475,49.345381
3274.368333,49.316345
3274.476111,49.316345
3274.579167,49.316345
3274.644444,49.238918
3274.933889,49.084063
