time,pressure
0.0,156.870446
0.198889,153.676578
0.409722,145.643517
0.719167,137.416887
1.044444,130.932368
1.161111,129.093474
1.315,126.964229
1.404444,125.996391
1.7325,122.512171
1.876944,122.512171
2.085556,118.931168
2.394167,116.027652
2.753889,113.027352
3.100833,110.704539
3.394444,108.381726
3.779444,105.865345
4.2225,103.542532
4.523889,101.606855
4.842222,99.864745
5.288889,97.929068
5.553611,96.864445
5.873611,95.799822
5.907778,95.799822
6.180278,95.799822
6.249167,93.960929
6.616389,92.412387
6.918611,91.347764
7.275,90.186358
7.544444,89.315303
7.915556,88.25068
8.288333,87.186058
8.581389,86.508571
8.921667,85.637516
9.270833,84.960029
9.560278,84.379326
9.832222,83.605055
10.2175,83.605055
10.235,81.862945
10.491389,81.862945
10.508333,80.895106
11.3375,78.572293
11.639167,77.798022
12.0575,76.926967
12.415556,76.24948
12.7025,75.668777
13.013611,75.088074
13.427778,74.313803
13.706389,73.829884
14.149167,73.055613
14.454722,72.571693
14.533611,72.571693
14.816667,72.571693
14.82,71.99099
15.1125,71.603855
15.859444,70.636016
16.408333,69.958529
16.7125,69.571393
17.13,68.99069
17.476944,68.603554
17.769444,68.216419
18.234444,67.635716
18.524444,67.24858
18.811944,66.958229
18.833611,66.958229
19.130833,66.958229
19.351389,66.377525
19.668056,66.087174
20.071944,65.603254
20.365556,65.312903
21.061667,64.441848
21.408889,64.054712
21.721667,63.764361
22.103611,63.377225
22.390278,63.086874
22.786944,62.796522
23.145278,62.796522
23.150833,62.409387
23.396389,62.409387
23.483611,62.119035
23.777778,61.828683
24.205278,61.344764
24.492778,61.054412
24.783611,60.764061
25.193333,60.376925
25.561944,59.98979
25.867778,59.796222
26.343611,59.409087
26.718333,59.118735
27.126667,58.828383
27.436111,58.828383
27.540833,58.634816
27.726944,58.634816
27.873333,58.344464
28.164722,58.24768
28.449167,58.054112
28.834444,57.860545
29.192778,57.666977
29.499722,57.473409
29.802778,57.376625
30.200278,57.183058
30.61,56.98949
30.920278,56.892706
31.300278,56.699138
31.613333,56.50557
31.769722,56.50557
31.919167,56.408787
32.087222,56.408787
32.277222,56.312003
32.877778,56.118435
33.191389,56.021651
33.581667,55.924867
33.986667,55.7313
34.331111,55.537732
34.613333,55.440948
34.9175,55.24738
35.169167,55.24738
35.494167,55.150596
35.780833,55.24738
36.159722,55.24738
36.163056,55.537732
36.455556,55.537732
36.458889,55.7313
36.818333,56.021651
37.1675,56.312003
37.471667,56.50557
37.796667,56.699138
38.471667,56.892706
38.779444,56.98949
39.117778,57.086274
39.918056,57.086274
40.156389,57.086274
40.402778,57.086274
40.5375,57.086274
40.722778,57.086274
40.855278,57.086274
41.203333,57.086274
41.610278,56.98949
42.015833,56.98949
42.326111,56.98949
42.734167,56.892706
43.135556,56.795922
43.534722,56.795922
43.907222,56.795922
44.281389,56.795922
44.606111,56.795922
44.871944,56.795922
44.8775,56.602354
45.162778,56.602354
45.229722,56.312003
45.553056,56.021651
45.849722,55.634516
46.2025,55.24738
46.519167,54.957029
46.918889,54.376325
47.278889,53.98919
47.624444,53.50527
47.878333,53.118135
48.228611,52.634216
48.550556,52.24708
48.803333,51.956728
49.153056,51.956728
49.155833,51.666377
49.181111,51.666377
49.441111,51.666377
49.455,51.376025
49.828056,51.085674
50.185278,50.795322
50.562778,50.50497
50.863056,50.408187
51.204722,50.214619
51.616667,50.021051
52.036944,49.827483
52.362778,49.633916
52.693056,49.537132
52.894722,49.440348
53.255278,49.24678
53.545556,49.24678
53.64,49.149996
53.840833,49.149996
54.039167,48.956428
54.435556,48.859645
54.725833,48.762861
55.518056,48.569293
55.900556,48.375725
56.345,48.278941
56.65,48.182157
57.071389,48.085374
57.336944,47.98859
57.647778,47.891806
57.911389,47.891806
58.157222,47.795022
58.184444,47.795022
58.488333,47.698238
58.812222,47.698238
59.194167,47.601454
59.496389,47.601454
59.809444,47.50467
60.016389,47.50467
60.1225,47.50467
60.504722,47.407887
60.817778,47.311103
61.136667,47.214319
61.354167,47.117535
61.658889,47.117535
62.376111,47.020751
62.831944,46.827183
63.171389,46.827183
64.015556,46.536832
64.187778,46.536832
64.567222,46.440048
64.891389,46.440048
65.261111,46.343264
65.611667,46.343264
66.044444,46.24648
66.37,46.24648
66.557222,46.149696
66.688056,46.149696
67.078611,46.052912
67.374722,46.052912
67.377222,46.052912
67.673889,45.956128
67.988889,45.956128
68.301667,45.859345
68.608056,45.859345
69.01,45.762561
69.187222,45.762561
69.332222,45.762561
69.777222,45.762561
70.188056,45.762561
70.476111,45.762561
71.2825,45.665777
71.621944,45.568993
72.032778,45.568993
72.334444,45.568993
72.606389,45.568993
72.97,45.472209
73.193056,45.472209
73.308333,45.472209
73.668056,45.375425
74.040556,45.278641
74.451389,45.181857
74.7675,45.181857
75.150833,45.085074
75.4725,45.085074
75.798333,44.98829
76.612222,44.891506
76.918056,44.891506
77.310278,44.891506
77.705833,44.794722
78.080833,44.794722
78.396111,44.794722
78.756667,44.697938
79.114444,44.697938
79.470556,44.601154
79.765,44.601154
80.113056,44.601154
80.506111,44.601154
80.884444,44.50437
81.239722,44.50437
81.623611,44.50437
81.988056,44.50437
81.992778,44.407586
82.733056,44.407586
83.165278,44.310803
83.478889,44.310803
84.090833,44.214019
84.388889,44.214019
84.746111,44.214019
85.023611,44.214019
85.126667,44.214019
85.518056,44.214019
85.872222,44.214019
86.867778,44.214019
87.111944,44.214019
87.873889,44.117235
88.156111,44.117235
88.441944,44.020451
88.833889,43.923667
89.094167,43.923667
89.186667,43.923667
89.411944,43.923667
89.544722,43.923667
89.859167,43.826883
90.373611,43.826883
90.67,43.826883
91.066389,43.826883
91.368889,43.826883
91.688889,43.730099
92.050278,43.730099
92.441111,43.730099
92.7825,43.730099
93.218333,43.633316
93.523333,43.633316
93.526667,43.633316
93.780278,43.633316
93.9075,43.633316
94.265833,43.536532
94.579722,43.536532
94.886667,43.536532
95.2925,43.536532
95.577222,43.536532
96.0575,43.439748
96.4425,43.439748
96.837222,43.439748
97.180278,43.439748
97.600833,43.439748
97.882778,43.439748
98.021111,43.439748
98.1375,43.439748
98.644167,43.439748
99.019722,43.439748
99.308333,43.342964
99.724167,43.342964
100.057778,43.342964
100.366111,43.342964
100.685,43.24618
101.015278,43.24618
101.401111,43.24618
101.406111,43.24618
101.764167,43.24618
102.250556,43.149396
102.665833,43.149396
103.083056,43.149396
103.375278,43.052612
103.685,43.052612
104.026389,43.052612
104.312778,43.052612
104.648333,43.052612
105.114167,42.955828
105.517222,42.955828
105.843056,42.955828
106.329444,42.955828
106.519722,42.955828
106.713611,42.955828
107.128056,42.955828
107.434722,42.859045
107.729167,42.859045
108.181944,42.859045
108.489444,42.859045
108.785833,42.859045
109.216111,42.859045
109.514167,42.859045
109.869167,42.859045
110.567222,42.762261
110.570556,42.762261
111.0175,42.762261
111.309167,42.762261
111.836111,42.665477
112.281944,42.665477
112.582222,42.665477
113.026944,42.665477
113.257222,42.665477
113.668056,42.665477
114.415556,42.568693
114.712222,42.568693
115.165278,42.471909
115.4825,42.471909
115.823333,42.471909
116.130278,42.471909
116.488333,42.471909
116.721944,42.471909
117.104444,42.471909
117.393056,42.471909
118.155833,42.471909
118.158333,42.375125
118.449444,42.375125
118.84,42.375125
119.245278,42.375125
119.6475,42.375125
119.65,42.375125
120.078333,42.375125
120.395833,42.278341
120.691944,42.278341
121.0425,42.278341
121.413611,42.278341
121.416944,42.278341
121.711667,42.278341
122.197222,42.181557
122.492222,42.181557
122.794722,42.278341
123.226389,42.181557
123.538056,42.181557
123.838611,42.181557
124.591111,42.181557
125.035278,42.181557
125.310833,42.181557
125.437778,42.181557
125.680556,42.181557
126.044722,42.181557
126.417222,42.084774
126.723333,42.084774
127.104444,42.084774
127.451111,42.084774
127.879722,42.084774
127.882222,42.084774
128.197778,42.084774
128.535,42.084774
128.842222,41.98799
129.121389,41.98799
129.42,41.98799
129.712222,41.98799
130.093889,41.98799
130.421944,41.98799
130.718056,41.98799
130.720278,41.98799
131.164722,41.98799
131.519722,41.98799
131.906944,41.98799
132.253056,41.891206
132.65,41.891206
133.119444,41.891206
133.540556,41.891206
133.901389,41.891206
134.283333,41.891206
134.574444,41.891206
134.900833,41.891206
135.211667,41.891206
135.845833,41.891206
136.108611,41.891206
136.330278,41.891206
136.476111,41.794422
136.778333,41.794422
137.230833,41.697638
137.527222,41.600854
137.88,41.600854
138.220833,41.50407
138.515278,41.50407
138.840556,41.50407
139.300278,41.407286
139.630556,41.407286
139.633056,41.407286
140.010833,41.310503
140.314722,41.310503
140.333611,41.310503
140.707778,41.213719
141.111389,41.213719
141.485556,41.213719
141.786111,41.213719
142.237778,41.213719
142.422778,41.213719
142.713333,41.213719
143.093056,41.213719
143.369444,41.213719
143.687778,41.116935
143.908333,41.116935
144.284444,41.116935
144.576389,41.116935
145.043889,41.116935
145.406944,41.116935
146.645278,41.116935
147.081389,41.116935
147.321389,41.116935
147.709167,41.116935
148.176111,41.116935
148.561389,41.213719
148.835,41.213719
149.200278,41.213719
149.528889,41.213719
149.890833,41.213719
150.671944,41.116935
151.036111,41.116935
151.0625,41.116935
151.4,41.020151
151.693333,41.020151
152.059722,41.020151
152.450278,41.020151
152.876667,41.020151
153.247222,41.020151
153.5775,41.020151
154.003056,40.923367
154.300278,40.923367
154.594722,40.923367
154.853889,40.826583
155.071944,40.826583
155.354722,40.826583
155.676389,40.826583
156.019444,40.826583
156.358611,40.826583
156.673889,40.826583
157.032778,40.826583
157.34,40.826583
157.649167,40.826583
158.035,40.826583
158.348333,40.826583
158.656389,40.826583
159.111111,40.826583
159.896389,40.923367
160.074167,40.923367
160.427222,40.923367
160.716944,40.923367
161.066111,40.826583
161.391389,40.826583
161.731111,40.826583
162.088333,40.826583
162.657778,40.826583
163.173056,40.826583
163.533889,40.826583
163.826389,40.826583
164.194167,40.729799
164.616944,40.729799
165.011944,40.729799
165.298056,40.729799
165.361389,40.729799
165.676667,40.729799
166.023056,40.729799
166.338333,40.729799
166.6275,40.729799
166.916667,40.729799
167.285833,40.729799
167.603611,40.729799
168.038611,40.729799
168.445833,40.633015
168.851944,40.633015
169.378889,40.633015
169.381389,40.633015
169.851667,40.633015
170.226389,40.633015
170.564722,40.633015
170.843056,40.633015
171.304167,40.633015
171.643889,40.633015
172.059167,40.633015
172.364167,40.633015
172.686111,40.633015
173.05,40.633015
173.425278,40.633015
173.735556,40.633015
174.141944,40.633015
174.7775,40.633015
175.12,40.633015
175.478333,40.633015
175.796389,40.633015
176.282222,40.633015
176.284444,40.536232
176.586389,40.536232
177.013333,40.536232
177.314167,40.536232
177.561389,40.536232
177.884167,40.536232
178.2525,40.536232
178.590556,40.536232
178.593889,40.536232
178.874444,40.536232
179.188333,40.536232
179.441111,40.536232
179.752778,40.536232
180.134167,40.536232
180.520833,40.536232
180.896111,40.536232
181.239444,40.536232
181.551111,40.536232
181.862778,40.536232
182.225556,40.536232
182.230556,40.536232
182.514722,40.536232
182.646389,40.536232
182.869444,40.536232
183.227778,40.633015
183.887778,40.536232
184.444722,40.536232
184.794444,40.536232
184.796944,40.536232
185.074167,40.536232
185.391667,40.536232
185.818333,40.536232
186.188056,40.536232
186.545833,40.536232
187.271389,40.536232
187.68,40.633015
188.026944,40.633015
188.34,40.633015
188.646667,40.633015
189.010278,40.729799
189.310278,40.729799
190.036389,40.633015
190.285833,40.633015
190.629167,40.633015
190.991944,40.633015
191.322222,40.633015
191.696667,40.633015
192.073889,40.633015
192.678333,40.729799
192.991667,40.729799
193.312778,40.729799
193.671389,40.729799
193.674444,40.729799
194.021944,40.633015
194.338889,40.633015
194.615,40.633015
195.015,40.729799
195.288333,40.633015
195.428611,40.633015
195.5825,40.633015
196.016667,40.633015
196.375278,40.633015
196.769444,40.633015
197.153611,40.633015
197.465278,40.536232
197.81,40.536232
198.128611,40.536232
198.131111,40.536232
198.553611,40.536232
198.684167,40.536232
199.023611,40.536232
199.275833,40.536232
199.450278,40.536232
199.558333,40.536232
199.748889,40.536232
199.872778,40.536232
200.2625,40.439448
200.617778,40.439448
200.998333,40.439448
201.361944,40.439448
201.683611,40.439448
202.019444,40.439448
202.021944,40.536232
202.280556,40.536232
202.574722,40.536232
203.017222,40.536232
203.2925,40.536232
203.608333,40.536232
203.751944,40.536232
203.888889,40.536232
203.891389,40.536232
204.032222,40.536232
204.215833,40.536232
204.490278,40.536232
204.786667,40.536232
205.213333,40.536232
205.570556,40.536232
205.897222,40.536232
206.250833,40.536232
206.641389,40.536232
206.89,40.536232
207.260833,40.536232
207.840278,40.439448
208.130278,40.439448
208.397222,40.439448
208.494167,40.439448
208.761944,40.439448
208.764444,40.439448
209.122778,40.439448
209.789722,40.439448
210.260278,40.439448
210.262778,40.439448
210.548056,40.439448
210.888056,40.439448
211.244167,40.439448
211.648889,40.439448
212.071667,40.439448
212.336389,40.439448
212.465833,40.439448
212.753611,40.439448
212.76,40.439448
213.099722,40.439448
213.405833,40.439448
213.773056,40.439448
214.206111,40.439448
214.545833,40.439448
214.840833,40.342664
215.276667,40.342664
215.721111,40.342664
216.078889,40.342664
216.355278,40.342664
216.786389,40.342664
216.897778,40.342664
217.121944,40.342664
217.2575,40.342664
217.8875,40.342664
218.213333,40.342664
218.530556,40.342664
218.899167,40.342664
219.256111,40.342664
219.605556,40.342664
220.482222,40.342664
220.805,40.342664
221.152778,40.342664
221.208611,40.439448
221.443056,40.439448
221.530278,40.439448
222.023889,40.439448
222.326111,40.342664
222.717222,40.342664
223.099167,40.342664
223.828889,40.439448
224.191667,40.439448
224.585278,40.439448
225.032222,40.439448
225.33,40.439448
225.481111,40.439448
225.755833,40.439448
225.759167,40.439448
226.095556,40.342664
226.398333,40.342664
226.69,40.342664
227.045556,40.342664
227.048056,40.342664
227.430556,40.342664
227.693333,40.342664
227.896667,40.342664
228.261944,40.342664
228.556111,40.342664
228.558611,40.342664
228.851667,40.342664
229.190278,40.342664
229.486944,40.342664
229.762778,40.342664
229.790556,40.342664
230.038056,40.342664
230.271389,40.24588
230.568611,40.24588
230.858889,40.24588
231.226389,40.24588
232.108611,40.342664
232.443889,40.342664
232.446667,40.342664
232.874167,40.342664
233.237222,40.24588
233.519444,40.24588
233.820556,40.24588
234.064167,40.24588
234.2,40.24588
234.35,40.24588
234.56,40.24588
234.855,40.24588
235.348333,40.24588
235.654722,40.24588
236.070833,40.24588
236.073333,40.24588
236.350278,40.149096
236.665556,40.149096
237.004722,40.149096
237.305556,40.149096
237.619722,40.149096
237.920278,40.052312
238.276389,40.149096
238.405556,40.149096
238.662778,40.149096
238.684722,40.149096
239.011667,40.149096
239.248889,40.149096
239.629444,40.149096
239.900833,40.149096
240.26,40.149096
240.640556,40.052312
241.070833,40.052312
241.381944,40.052312
241.764444,40.052312
242.107222,40.052312
242.431111,40.052312
242.741389,40.052312
242.994444,40.052312
243.466111,40.052312
243.764722,40.052312
244.100278,40.052312
244.406667,40.052312
244.710833,40.052312
245.050278,40.052312
245.349444,40.052312
245.635,40.052312
246.003333,40.052312
247.103611,40.052312
247.264444,40.052312
247.398611,40.052312
247.582222,40.149096
247.998611,40.149096
248.373333,40.149096
248.685833,40.149096
249.029444,40.149096
249.3125,40.149096
249.703611,40.149096
250.023333,40.149096
250.329444,40.149096
250.331944,40.149096
250.684444,40.149096
251.070833,40.149096
251.389722,40.149096
251.395,40.149096
251.415,40.149096
252.009167,40.052312
252.318056,40.052312
252.748611,40.149096
253.102222,40.149096
253.104722,40.149096
253.436389,40.149096
253.718056,40.149096
254.068611,40.149096
254.434167,40.149096
254.711667,40.149096
255.110833,40.149096
255.838333,40.149096
255.841667,40.052312
256.046111,40.052312
256.4225,40.052312
256.718333,40.052312
257.125556,40.052312
257.469444,39.955528
257.847222,39.955528
257.849722,39.955528
258.2775,39.858745
258.628889,39.761961
258.880278,39.761961
259.145278,39.665177
259.484722,39.568393
259.782222,39.471609
260.206389,39.374825
260.506111,39.278041
260.836667,39.278041
261.182222,39.181257
261.558611,39.084474
261.858889,39.084474
262.260833,39.084474
262.600556,38.98769
263.059444,38.98769
263.445556,38.98769
263.756389,38.98769
264.125556,38.98769
264.474444,38.890906
264.994722,38.890906
265.288056,38.890906
265.574444,38.890906
266.032222,38.794122
266.307222,38.794122
266.308056,38.794122
266.310556,38.794122
266.6875,38.794122
267.043611,38.794122
267.329722,38.794122
267.410278,38.697338
267.753056,38.697338
268.095833,38.697338
268.387778,38.697338
268.776667,38.697338
269.184167,38.697338
269.548333,38.600554
269.833889,38.600554
270.168889,38.600554
270.408889,38.600554
270.751944,38.600554
271.111111,38.600554
271.490278,38.600554
271.743611,38.600554
272.069722,38.50377
272.429722,38.50377
272.689444,38.50377
273.009167,38.50377
273.324722,38.50377
273.655278,38.50377
274.078056,38.50377
274.471111,38.50377
274.811111,38.50377
275.066389,38.50377
275.068889,38.50377
275.422778,38.50377
275.691667,38.600554
276.016389,38.600554
276.396111,38.697338
276.751389,38.794122
277.083611,38.794122
277.085833,38.794122
277.361389,38.794122
277.636944,38.794122
278.081667,38.794122
278.106111,38.794122
278.365556,38.697338
278.6625,38.697338
279.131944,38.697338
279.84,38.600554
280.075278,38.600554
280.371389,38.600554
280.373889,38.50377
280.733056,38.50377
281.0175,38.50377
281.276667,38.50377
281.645556,38.406986
282.066667,38.406986
282.375556,38.406986
282.7525,38.406986
283.094444,38.406986
283.353611,38.406986
283.636667,38.310203
284.058056,38.310203
284.416667,38.310203
284.685556,38.310203
285.042222,38.213419
285.341111,38.213419
285.736944,38.116635
286.201389,38.116635
286.493611,38.116635
286.775556,38.116635
287.173056,38.116635
287.574444,38.116635
287.578611,38.116635
287.883889,38.116635
288.243611,38.116635
288.582778,38.116635
288.588611,38.213419
289.426111,38.116635
289.733056,38.116635
290.162778,38.116635
290.481389,38.116635
290.77,38.116635
291.125833,38.116635
291.418333,38.116635
291.726389,38.116635
292.174444,38.116635
292.530556,38.116635
292.871389,38.116635
293.313611,38.019851
293.676667,38.019851
294.1225,38.019851
294.427222,38.019851
294.710278,38.019851
295.226944,38.019851
295.489444,38.019851
295.813056,38.019851
296.188333,38.019851
296.540833,38.019851
296.792222,38.019851
297.180833,38.019851
297.6,37.923067
298.275833,37.923067
298.547778,37.923067
298.8625,37.923067
299.271667,37.923067
299.273889,37.923067
299.675556,37.923067
300.054167,37.923067
300.428611,37.923067
300.718056,37.923067
301.168333,37.923067
301.171667,37.923067
301.523611,38.019851
301.896944,38.019851
302.221389,38.019851
302.226944,38.019851
302.537222,38.019851
303.026389,38.019851
303.322222,38.019851
303.814444,38.019851
304.239722,38.019851
304.609722,38.019851
304.86,37.923067
305.325833,37.923067
305.664167,38.019851
306.098611,38.019851
306.387222,38.019851
307.13,38.019851
307.5525,38.019851
307.846944,38.019851
308.203333,38.019851
308.479167,38.019851
308.776667,38.019851
309.217778,38.019851
309.510278,38.019851
309.920278,38.019851
310.295556,38.019851
310.625,38.019851
310.911667,38.019851
311.286667,38.019851
311.604722,38.019851
311.858889,38.019851
312.188611,38.019851
312.486389,38.019851
312.788056,38.019851
313.200556,38.019851
313.500278,38.116635
313.828333,38.019851
314.198333,38.019851
314.473333,38.019851
314.800278,38.019851
315.2275,38.019851
315.543611,38.019851
315.851111,38.019851
316.306389,38.019851
316.678611,38.116635
317.118889,38.116635
317.436944,38.116635
317.812222,38.116635
318.175833,38.116635
318.547222,38.116635
318.8625,38.116635
319.240833,38.116635
319.631389,38.116635
319.861111,38.116635
320.299444,38.116635
