time,pressure
0.0,192.944285
0.25,189.363282
0.5,184.136953
0.75,179.975247
1.0,176.200676
1.5,169.619372
2.0,162.941285
3.0,152.101491
4.0,143.100591
5.0,134.777178
6.0,126.937685
7.0,120.06603
8.0,114.162214
9.0,109.226236
10.0,107.387343
11.0,99.547849
12.0,94.999007
12.833333,91.32122
15.333333,79.32002
17.333333,70.028768
19.333333,57.737216
19.916667,54.640132
20.916667,50.768778
21.916667,48.445965
22.916667,45.929584
23.916667,44.09069
24.916667,42.542148
25.416667,41.961445
28.0,38.57401
30.166667,35.864061
30.666667,35.476926
31.166667,35.476926
31.666667,35.476926
32.166667,35.476926
33.166667,35.380142
34.166667,35.186574
35.166667,35.283358
35.666667,35.670493
36.166667,35.864061
36.833333,35.960845
39.333333,36.444764
41.333333,37.219035
43.333333,37.702955
45.333333,38.380442
46.583333,38.961145
47.083333,39.445064
47.583333,40.122552
48.083333,39.154713
48.583333,37.799739
49.083333,38.57401
49.583333,39.348281
50.083333,39.251497
50.583333,39.735416
51.083333,40.122552
51.583333,40.703255
52.833333,37.509387
54.333333,37.702955
55.5,38.864361
58.166667,41.187174
59.75,37.993306
61.666667,38.477226
62.666667,40.703255
64.083333,37.219035
66.75,39.541848
67.0,39.928984
68.083333,41.187174
68.166667,41.380742
68.583333,41.380742
68.666667,41.864661
69.083333,40.316119
69.166667,40.606471
69.583333,37.315819
70.166667,37.219035
70.583333,37.509387
70.666667,38.09009
71.083333,38.57401
71.166667,39.154713
71.583333,38.767577
71.666667,39.348281
72.083333,39.8322
72.75,41.09039
73.0,40.025768
73.233333,41.187174
73.316667,41.767877
73.333333,41.671094
73.666667,40.993606
74.333333,42.638932
74.666667,41.961445
74.833333,42.058229
75.166667,39.154713
75.333333,38.477226
75.666667,36.541548
75.833333,38.09009
76.116667,37.025468
76.333333,38.477226
76.616667,37.412603
76.833333,38.767577
77.116667,38.09009
77.333333,39.735416
77.616667,38.670794
78.333333,40.316119
78.616667,39.541848
79.333333,38.670794
79.616667,37.025468
80.333333,39.8322
80.616667,37.993306
81.333333,40.316119
81.616667,39.154713
82.333333,41.671094
82.616667,40.316119
83.333333,41.864661
83.616667,41.09039
84.333333,39.735416
84.616667,37.315819
88.416667,41.961445
88.75,38.670794
90.4,38.670794
90.683333,37.993306
91.4,39.928984
91.8,39.251497
92.833333,42.058229
93.116667,41.477526
93.333333,42.735716
93.616667,41.671094
93.833333,43.026068
94.033333,41.380742
94.583333,39.348281
94.7,38.380442
94.75,38.283658
95.433333,38.670794
95.533333,38.477226
95.933333,39.251497
96.033333,38.961145
96.6,40.122552
96.7,39.8322
97.266667,40.993606
97.35,40.606471
97.766667,41.57431
97.85,41.187174
98.266667,42.058229
98.35,41.767877
98.833333,42.638932
98.9,42.445365
99.816667,40.703255
99.883333,39.445064
100.316667,38.670794
100.383333,38.283658
100.816667,38.864361
100.883333,38.477226
101.316667,39.445064
101.383333,39.057929
102.316667,40.412903
102.383333,40.122552
103.316667,41.477526
103.383333,41.187174
104.316667,41.283958
104.383333,40.316119
105.316667,39.251497
105.383333,38.57401
106.316667,39.251497
106.383333,38.961145
107.316667,40.606471
107.383333,40.316119
108.316667,41.767877
108.383333,41.380742
111.583333,38.961145
113.416667,41.380742
115.5,40.025768
117.5,41.380742
118.983333,42.8325
119.05,42.348581
119.983333,40.703255
120.05,40.219335
120.983333,41.671094
121.05,41.283958
121.983333,42.251797
122.05,41.767877
122.983333,41.477526
123.05,41.09039
123.983333,41.187174
124.05,40.896823
124.983333,41.671094
125.05,41.09039
125.983333,40.509687
126.05,40.219335
129.05,40.412903
129.983333,40.316119
130.05,39.928984
130.983333,39.735416
131.05,39.348281
131.983333,41.09039
132.05,40.800039
132.983333,42.058229
133.05,41.380742
135.333333,38.380442
137.333333,40.896823
139.433333,41.283958
141.666667,37.702955
143.5,39.057929
145.666667,42.058229
148.25,39.8322
149.766667,42.058229
150.816667,43.509987
150.883333,42.929284
151.816667,39.928984
151.883333,39.541848
152.816667,41.477526
152.883333,40.993606
153.816667,40.703255
153.883333,40.316119
156.15,42.348581
156.216667,41.961445
159.333333,41.961445
162.0,44.768177
163.15,39.154713
163.216667,38.864361
164.15,39.735416
164.216667,39.445064
165.15,41.187174
165.216667,40.800039
166.15,42.638932
166.216667,42.251797
167.15,43.219636
167.216667,42.445365
168.15,38.961145
168.216667,38.670794
169.15,38.09009
169.216667,37.509387
170.15,37.993306
170.216667,37.702955
171.15,39.445064
171.216667,39.154713
172.15,40.896823
172.216667,40.509687
173.15,42.251797
173.216667,41.961445
174.15,39.154713
174.216667,38.09009
175.15,37.606171
175.216667,37.412603
175.5,38.09009
178.5,41.380742
181.5,38.670794
184.166667,41.961445
185.416667,39.541848
187.833333,39.057929
189.833333,41.767877
192.833333,42.155013
196.5,42.058229
199.5,41.477526
202.5,41.961445
205.5,40.509687
235.333333,39.928984
259.333333,40.509687
283.333333,41.57431
307.333333,40.219335
331.333333,40.800039
355.333333,40.896823
379.333333,40.800039
403.333333,40.800039
427.333333,39.8322
451.333333,40.412903
475.333333,39.735416
499.333333,40.896823
523.333333,42.8325
