time,pressure
0.0,145.610898
0.01,145.202542
0.02,145.110202
0.03,145.062369
0.04,145.03065
0.05,145.007105
0.06,144.988326
0.07,144.972706
0.08,144.959258
0.09,144.947325
0.101111,144.935704
0.113333,144.924105
0.127222,144.911882
0.142778,144.899673
0.16,144.887054
0.179444,144.873928
0.201389,144.860312
0.226111,144.84612
0.253611,144.831303
0.284722,144.815815
0.319444,144.799621
0.358333,144.78269
0.401944,144.764997
0.451111,144.746517
0.506111,144.727222
0.567778,144.707103
0.637222,144.686128
0.715,144.664323
0.802222,144.641578
0.9,144.617886
1.009722,144.592841
1.133056,144.567178
1.271389,144.541252
1.426389,144.512788
1.600556,144.483598
1.795833,144.453872
2.014722,144.422287
2.260833,144.38953
2.536667,144.355378
2.846111,144.319762
3.193333,144.282607
3.583056,144.243833
4.020278,144.203364
4.510556,144.161122
5.061111,144.117038
5.678611,144.071047
6.371389,144.023095
7.148889,143.973142
8.021389,143.92116
9.0,143.867137
10.098056,143.811079
11.330278,143.753005
12.712778,143.692951
14.264167,143.630968
16.004444,143.567119
17.957222,143.501477
20.148611,143.434124
22.606944,143.365149
25.365556,143.294646
28.460556,143.222711
31.933333,143.14944
35.829722,143.074929
40.201389,142.999272
45.106944,142.922559
50.610833,142.844877
56.786111,142.766312
63.715,142.68694
71.489444,142.606831
80.2125,142.526054
90.0,142.444675
100.981667,142.362749
113.303333,142.28033
127.128333,142.197466
142.640278,142.114202
160.045278,142.030578
179.573611,141.94663
201.485,141.862392
226.069722,141.777893
253.654444,141.69316
284.605,141.608218
316.885,141.528783
349.165,141.456933
381.445,141.391345
413.725,141.331015
446.005,141.275162
478.285,141.223167
510.565,141.174531
542.845,141.128847
575.125,141.085777
607.405,141.045037
639.685,141.006389
671.965,140.969628
704.245,140.934578
736.525,140.901087
768.805,140.869023
801.085,140.838268
833.365,140.80872
865.645,140.780288
897.925,140.752891
930.205,140.726455
962.485,140.700916
994.765,140.676215
1027.045,140.652299
1059.325,140.629118
1091.605,140.60663
1097.8025,140.602389
1104.0,140.598171
1104.01,140.632069
1104.02,140.63973
1104.03,140.643694
1104.044167,140.647163
1104.064722,140.650446
1104.095,140.653644
1104.139167,140.656916
1104.204444,140.660496
1104.3,140.66459
1104.440278,140.669315
1104.646389,140.674737
1104.948611,140.680914
1105.3925,140.687887
1106.043889,140.695807
1107.0,140.704735
1108.403333,140.714816
1110.463333,140.726138
1113.486944,140.738652
1117.924722,140.752082
1124.438889,140.765866
1134.0,140.779141
1148.033889,140.790736
1168.633056,140.799133
1198.868333,140.802387
1231.148333,140.799898
1263.428333,140.794109
1295.708333,140.786366
1327.988333,140.77739
1360.268333,140.767606
1392.548333,140.757285
1424.828333,140.746607
1457.108333,140.735699
1489.388333,140.724649
1521.668333,140.713523
1553.948333,140.702368
1586.228333,140.691221
1618.508333,140.680109
1650.788333,140.669054
1683.068333,140.658071
1715.348333,140.647172
1747.628333,140.636366
1779.908333,140.625662
1789.954167,140.622352
1800.0,140.619052
1800.01,140.592311
1800.02,140.586262
1800.03,140.583127
1800.044167,140.580379
1800.064722,140.577773
1800.095,140.575225
1800.139167,140.572606
1800.204444,140.569727
1800.3,140.566416
1800.440278,140.562569
1800.646389,140.558116
1800.948611,140.552984
1801.3925,140.547102
1802.043889,140.540295
1803.0,140.532431
1804.403333,140.523273
1806.463333,140.512573
1809.486944,140.500109
1813.924722,140.485718
1820.438889,140.469291
1822.219444,140.465435
1824.0,140.461785
1824.01,140.466962
1824.02,140.468117
1824.03,140.468706
1824.044167,140.469211
1824.064722,140.469675
1824.095,140.470108
1824.139167,140.470526
1824.204444,140.470952
1824.3,140.4714
1824.440278,140.471861
1824.646389,140.472308
1824.948611,140.472696
1825.3925,140.472953
1826.043889,140.472994
1827.0,140.472679
1828.403333,140.47183
1830.463333,140.470203
1833.486944,140.467475
1837.924722,140.46324
1844.438889,140.457026
1854.0,140.448318
1868.033889,140.436562
1870.016944,140.434991
1872.0,140.433441
1872.01,140.444987
1872.02,140.447592
1872.03,140.448938
1872.044167,140.450113
1872.064722,140.45122
1872.095,140.452293
1872.139167,140.453384
1872.204444,140.454569
1872.3,140.455912
1872.440278,140.457446
1872.646389,140.459181
1872.948611,140.461123
1873.3925,140.463259
1874.043889,140.465608
1875.0,140.46814
1876.403333,140.470833
1878.463333,140.473618
1881.486944,140.476339
1885.924722,140.478716
1892.438889,140.480315
1902.0,140.480539
1916.033889,140.478635
1918.016944,140.478241
1920.0,140.477824
1920.01,140.545357
1920.02,140.560626
1920.03,140.568535
1920.044167,140.575461
1920.064722,140.582022
1920.095,140.588427
1920.139167,140.594995
1920.204444,140.6022
1920.3,140.610463
1920.440278,140.620032
1920.646389,140.631066
1920.948611,140.643712
1921.3925,140.658103
1922.043889,140.674611
1923.0,140.693467
1924.403333,140.715111
1926.463333,140.739938
1929.486944,140.768169
1933.924722,140.799696
1940.438889,140.834023
1950.0,140.870302
1964.033889,140.907415
1984.633056,140.944021
1988.316389,140.949177
1992.0,140.954018
1992.01,140.912385
1992.02,140.90298
1992.03,140.898115
1992.044167,140.89386
1992.064722,140.889837
1992.095,140.885922
1992.139167,140.881922
1992.204444,140.877553
1992.3,140.872567
1992.440278,140.866824
1992.646389,140.860253
1992.948611,140.852794
1993.3925,140.844414
1994.043889,140.834951
1995.0,140.824359
1996.403333,140.812494
1998.463333,140.799285
2001.486944,140.784806
2005.924722,140.769358
2012.438889,140.753463
2014.219444,140.750006
2016.0,140.746829
2016.01,140.654987
2016.02,140.634205
2016.03,140.623432
2016.044167,140.613987
2016.064722,140.605025
2016.095,140.596256
2016.139167,140.587237
2016.204444,140.57731
2016.3,140.565886
2016.440278,140.552596
2016.646389,140.537189
2016.948611,140.519405
2017.3925,140.498982
2018.043889,140.475303
2019.0,140.4479
2020.403333,140.415969
2022.463333,140.378719
2025.486944,140.335535
2029.924722,140.286204
2036.438889,140.231
2038.219444,140.218267
2040.0,140.206305
2040.01,140.240949
2040.02,140.248733
2040.03,140.252733
2040.044167,140.256203
2040.064722,140.259443
2040.095,140.262542
2040.139167,140.265634
2040.204444,140.268922
2040.3,140.272562
2040.440278,140.276592
2040.646389,140.280966
2040.948611,140.285579
2041.3925,140.290239
2042.043889,140.294779
2043.0,140.298826
2044.403333,140.30196
2046.463333,140.303575
2049.486944,140.30284
2053.924722,140.298711
2060.438889,140.290051
2070.0,140.275859
2084.033889,140.255479
2104.633056,140.228654
2108.316389,140.224247
2112.0,140.219947
2112.01,140.166084
2112.02,140.153895
2112.03,140.147576
2112.044167,140.142034
2112.064722,140.136776
2112.095,140.131628
2112.139167,140.126332
2112.204444,140.1205
2112.3,140.113785
2112.440278,140.105969
2112.646389,140.096898
2112.948611,140.086415
2113.3925,140.074354
2114.043889,140.060332
2115.0,140.044038
2116.403333,140.024938
2118.463333,140.002454
2121.486944,139.976029
2125.924722,139.945213
2132.438889,139.909656
2134.219444,139.901257
2136.0,139.89329
2136.01,139.951903
2136.02,139.965123
2136.03,139.97195
2136.044167,139.977907
2136.064722,139.98352
2136.095,139.988957
2136.139167,139.994477
2136.204444,140.000464
2136.3,140.007244
2136.440278,140.014976
2136.646389,140.023713
2136.948611,140.033463
2137.3925,140.044171
2138.043889,140.055921
2139.0,140.068584
2140.403333,140.0821
2142.463333,140.096246
2145.486944,140.110525
2149.924722,140.124066
2156.438889,140.135645
2158.219444,140.137767
2160.0,140.139569
2160.01,140.141935
2160.02,140.142477
2160.03,140.142762
2160.044167,140.143017
2160.064722,140.143265
2160.095,140.143517
2160.139167,140.143787
2160.204444,140.144099
2160.3,140.144475
2160.440278,140.144936
2160.646389,140.145505
2160.948611,140.14621
2161.3925,140.147087
2162.043889,140.148185
2163.0,140.149553
2164.403333,140.151241
2166.463333,140.153263
2169.486944,140.15555
2173.924722,140.157878
2180.438889,140.159774
2190.0,140.160445
2204.033889,140.158756
2224.633056,140.153279
2254.868333,140.142399
2287.148333,140.12941
2319.428333,140.11605
2323.714167,140.114274
2328.0,140.112499
2328.01,140.111134
2328.02,140.110822
2328.03,140.110658
2328.044167,140.110512
2328.064722,140.110372
2328.095,140.11023
2328.139167,140.110079
2328.204444,140.109906
2328.3,140.1097
2328.440278,140.109448
2328.646389,140.109139
2328.948611,140.108758
2329.3925,140.108282
2330.043889,140.107677
2331.0,140.106897
2332.403333,140.105874
2334.463333,140.104512
2337.486944,140.10268
2341.924722,140.100191
2348.438889,140.096783
2358.0,140.092078
2372.033889,140.085529
2392.633056,140.076358
2422.868333,140.063486
2435.434167,140.05829
2448.0,140.053169
2448.01,140.016332
2448.02,140.007999
2448.03,140.00368
2448.044167,139.999896
2448.064722,139.996307
2448.095,139.992797
2448.139167,139.989192
2448.204444,139.985228
2448.3,139.980672
2448.440278,139.975379
2448.646389,139.969254
2448.948611,139.962198
2449.3925,139.954117
2450.043889,139.944771
2451.0,139.933982
2452.403333,139.921433
2454.463333,139.906795
2457.486944,139.889773
2461.924722,139.870171
2468.438889,139.847879
2478.0,139.822794
2492.033889,139.794713
2512.633056,139.763206
2542.868333,139.727519
2575.148333,139.696768
2607.428333,139.670446
2639.708333,139.64704
2671.988333,139.625723
2704.268333,139.605991
2736.548333,139.587515
2748.274167,139.581068
2760.0,139.574746
2760.01,139.527307
2760.02,139.516576
2760.03,139.511015
2760.044167,139.506141
2760.064722,139.501518
2760.095,139.496999
2760.139167,139.492355
2760.204444,139.48725
2760.3,139.481381
2760.440278,139.474564
2760.646389,139.466673
2760.948611,139.457583
2761.3925,139.44717
2762.043889,139.435127
2763.0,139.421222
2764.403333,139.405045
2766.463333,139.38617
2769.486944,139.364218
2773.924722,139.338933
2780.438889,139.310173
2790.0,139.277814
2804.033889,139.241611
2824.633056,139.20106
2828.316389,139.194798
2832.0,139.188762
2832.01,139.111025
2832.02,139.093434
2832.03,139.084314
2832.044167,139.076317
2832.064722,139.068729
2832.095,139.061301
2832.139167,139.05366
2832.204444,139.045247
2832.3,139.035561
2832.440278,139.024288
2832.646389,139.011208
2832.948611,138.996096
2833.3925,138.978715
2834.043889,138.958517
2835.0,138.935062
2836.403333,138.907593
2838.463333,138.875296
2841.486944,138.837404
2845.924722,138.793328
2852.438889,138.742662
2862.0,138.685078
2876.033889,138.620175
2896.633056,138.547376
2926.868333,138.465867
2927.434167,138.46453
2928.0,138.463198
2928.01,138.421726
2928.02,138.41233
2928.03,138.407452
2928.044167,138.403166
2928.064722,138.399089
2928.095,138.395083
2928.139167,138.390942
2928.204444,138.386358
2928.3,138.38105
2928.440278,138.37483
2928.646389,138.367549
2928.948611,138.359041
2929.3925,138.349116
2930.043889,138.337384
2931.0,138.323473
2932.403333,138.30678
2934.463333,138.286587
2937.486944,138.262087
2941.924722,138.232414
2948.438889,138.196618
2950.219444,138.18791
2952.0,138.179558
2952.01,138.33596
2952.02,138.371291
2952.03,138.38957
2952.044167,138.405557
2952.064722,138.420671
2952.095,138.435386
2952.139167,138.45042
2952.204444,138.466845
2952.3,138.485597
2952.440278,138.507196
2952.646389,138.531924
2952.948611,138.560005
2953.3925,138.591579
2954.043889,138.62727
2955.0,138.667282
2956.403333,138.712193
2958.463333,138.762337
2961.486944,138.817516
2965.924722,138.876662
2972.438889,138.937772
2982.0,138.998128
2996.033889,139.054637
3016.633056,139.104137
3046.868333,139.143604
3059.434167,139.153771
3072.0,139.161607
3072.01,139.26315
3072.02,139.286116
3072.03,139.298015
3072.044167,139.30844
3072.064722,139.318322
3072.095,139.327978
3072.139167,139.337892
3072.204444,139.348781
3072.3,139.361287
3072.440278,139.375797
3072.646389,139.392565
3072.948611,139.411839
3073.3925,139.433859
3074.043889,139.459241
3075.0,139.488414
3076.403333,139.522156
3078.463333,139.56123
3081.486944,139.606206
3085.924722,139.657247
3092.438889,139.714035
3102.0,139.775826
3116.033889,139.841527
3136.633056,139.90968
3166.868333,139.978342
3199.148333,140.029508
3207.574167,140.040423
3216.0,140.050551
3216.01,140.01361
3216.02,140.005266
3216.03,140.000949
3216.044167,139.997174
3216.064722,139.993606
3216.095,139.990133
3216.139167,139.986585
3216.204444,139.98271
3216.3,139.978288
3216.440278,139.973198
3216.646389,139.967374
3216.948611,139.960766
3217.3925,139.953348
3218.043889,139.944979
3219.0,139.935628
3220.403333,139.925182
3222.463333,139.913607
3225.486944,139.901025
3229.924722,139.887806
3236.438889,139.874593
3246.0,139.862246
3260.033889,139.851698
3280.633056,139.843746
3310.868333,139.838763
3343.148333,139.836746
3375.428333,139.83586
3407.708333,139.835236
3439.988333,139.834524
3472.268333,139.83358
3476.134167,139.833448
3480.0,139.833312
3480.01,139.817077
3480.02,139.813405
3480.03,139.811503
3480.044167,139.809837
3480.064722,139.808258
3480.095,139.806715
3480.139167,139.805132
3480.204444,139.803395
3480.3,139.8014
3480.440278,139.799087
3480.646389,139.796416
3480.948611,139.79335
3481.3925,139.78985
3482.043889,139.785823
3483.0,139.781203
3484.403333,139.77587
3486.463333,139.769706
3489.486944,139.762624
3493.924722,139.754593
3500.438889,139.745644
3510.0,139.735841
3524.033889,139.725228
3544.633056,139.713779
3574.868333,139.701312
3587.434167,139.696991
3600.0,139.693005
3600.01,139.724425
3600.02,139.731527
3600.03,139.735205
3600.044167,139.738425
3600.064722,139.741473
3600.095,139.744447
3600.139167,139.747494
3600.204444,139.750833
3600.3,139.754658
3600.440278,139.759082
3600.646389,139.764174
3600.948611,139.769997
3601.3925,139.776603
3602.043889,139.784155
3603.0,139.792741
3604.403333,139.802543
3606.463333,139.813712
3609.486944,139.826311
3613.924722,139.840241
3620.438889,139.855219
3630.0,139.870804
3644.033889,139.886446
3664.633056,139.901521
3694.868333,139.915329
3727.148333,139.924514
3735.574167,139.926322
3744.0,139.927944
3744.01,139.950444
3744.02,139.955534
3744.03,139.958171
3744.044167,139.960482
3744.064722,139.962673
3744.095,139.964814
3744.139167,139.967014
3744.204444,139.969431
3744.3,139.972208
3744.440278,139.975431
3744.646389,139.97916
3744.948611,139.983449
3745.3925,139.988356
3746.043889,139.99402
3747.0,140.000543
3748.403333,140.008107
3750.463333,140.016893
3753.486944,140.027047
3757.924722,140.038635
3764.438889,140.051626
3774.0,140.065912
3788.033889,140.081322
3808.633056,140.097609
3838.868333,140.114387
3871.148333,140.127138
3903.428333,140.13667
3935.708333,140.144033
3967.988333,140.149821
4000.268333,140.15441
4032.548333,140.15805
4064.828333,140.160922
4097.108333,140.163158
4129.388333,140.164858
4161.668333,140.166102
4193.948333,140.166952
4226.228333,140.167461
4258.508333,140.167669
4265.254167,140.167678
4272.0,140.167676
4272.01,140.295694
4272.02,140.324642
4272.03,140.339638
4272.044167,140.352772
4272.064722,140.365217
4272.095,140.377371
4272.139167,140.38984
4272.204444,140.403524
4272.3,140.419226
4272.440278,140.437424
4272.646389,140.458424
4272.948611,140.48252
4273.3925,140.509984
4274.043889,140.541552
4275.0,140.577706
4276.403333,140.619352
4278.463333,140.667345
4281.486944,140.722279
4285.924722,140.784226
4292.438889,140.852674
4302.0,140.926685
4316.033889,141.005134
4336.633056,141.086894
4366.868333,141.170928
4367.434167,141.172242
4368.0,141.17355
4368.01,140.992371
4368.02,140.95142
4368.03,140.930218
4368.044167,140.911659
4368.064722,140.894091
4368.095,140.876957
4368.139167,140.859412
4368.204444,140.840191
4368.3,140.818186
4368.440278,140.79275
4368.646389,140.763497
4368.948611,140.730081
4369.3925,140.692217
4370.043889,140.649009
4371.0,140.599981
4372.403333,140.544148
4374.463333,140.48071
4377.486944,140.409392
4381.924722,140.330837
4388.438889,140.246707
4390.219444,140.227885
4392.0,140.210405
4392.01,140.332659
4392.02,140.36023
4392.03,140.374467
4392.044167,140.386887
4392.064722,140.398586
4392.095,140.409917
4392.139167,140.421414
4392.204444,140.43388
4392.3,140.44799
4392.440278,140.464072
4392.646389,140.482232
4392.948611,140.502484
4393.3925,140.524714
4394.043889,140.549106
4395.0,140.575425
4396.403333,140.603637
4398.463333,140.633471
4401.486944,140.664293
4405.924722,140.695034
4412.438889,140.724416
4422.0,140.751427
4436.033889,140.775784
4438.016944,140.778429
4440.0,140.780938
4440.01,140.618734
4440.02,140.582066
4440.03,140.563077
4440.044167,140.546451
4440.064722,140.530707
4440.095,140.515343
4440.139167,140.499599
4440.204444,140.482338
4440.3,140.462559
4440.440278,140.439672
4440.646389,140.413312
4440.948611,140.383144
4441.3925,140.348874
4442.043889,140.309642
4443.0,140.264937
4444.403333,140.213746
4446.463333,140.155161
4449.486944,140.088649
4453.924722,140.014373
4460.438889,139.933247
4470.0,139.846713
4484.033889,139.756414
4486.016944,139.745882
4488.0,139.735769
4488.01,139.76838
4488.02,139.775715
4488.03,139.779491
4488.044167,139.782772
4488.064722,139.785844
4488.095,139.788794
4488.139167,139.791753
4488.204444,139.79492
4488.3,139.798451
4488.440278,139.802397
4488.646389,139.806736
4488.948611,139.811395
4489.3925,139.816234
4490.043889,139.821139
4491.0,139.82581
4492.403333,139.829899
4494.463333,139.832848
4497.486944,139.833816
4501.924722,139.831626
4508.438889,139.824839
4518.0,139.811966
4532.033889,139.791799
4552.633056,139.763716
4556.316389,139.759005
4560.0,139.754393
4560.01,139.768178
4560.02,139.771285
4560.03,139.772889
4560.044167,139.774287
4560.064722,139.775603
4560.095,139.776876
4560.139167,139.778165
4560.204444,139.779559
4560.3,139.781133
4560.440278,139.782921
4560.646389,139.78493
4560.948611,139.787154
4561.3925,139.789568
4562.043889,139.792171
4563.0,139.794901
4564.403333,139.797688
4566.463333,139.800389
4569.486944,139.802735
4573.924722,139.804278
4580.438889,139.804358
4590.0,139.802106
4604.033889,139.796502
4624.633056,139.786484
4654.868333,139.771112
4687.148333,139.755364
4719.428333,139.740708
4751.708333,139.727139
4783.988333,139.71455
4816.268333,139.702818
4848.548333,139.691829
4880.828333,139.681484
4913.108333,139.671699
4945.388333,139.662403
4956.694167,139.659252
4968.0,139.656151
4968.01,139.713236
4968.02,139.726143
4968.03,139.732827
4968.044167,139.73868
4968.064722,139.744224
4968.095,139.749636
4968.139167,139.755184
4968.204444,139.761269
4968.3,139.768245
4968.440278,139.776322
4968.646389,139.785631
4968.948611,139.796294
4969.3925,139.808421
4970.043889,139.822322
4971.0,139.838186
4972.403333,139.856379
4974.463333,139.877227
4977.486944,139.900914
4981.924722,139.927358
4988.438889,139.956165
4998.0,139.986684
5012.033889,140.018091
5032.633056,140.049448
5062.868333,140.079724
5075.434167,140.089119
5088.0,140.097244
5088.01,139.968729
5088.02,139.939674
5088.03,139.924625
5088.044167,139.911448
5088.064722,139.898966
5088.095,139.886783
5088.139167,139.874292
5088.204444,139.860593
5088.3,139.844887
5088.440278,139.826702
5088.646389,139.805742
5088.948611,139.781732
5089.3925,139.754424
5090.043889,139.723117
5091.0,139.687381
5092.403333,139.646382
5094.463333,139.59937
5097.486944,139.545889
5101.924722,139.486055
5108.438889,139.420604
5118.0,139.350722
5132.033889,139.277745
5152.633056,139.202873
5156.316389,139.191957
5160.0,139.181595
5160.01,139.18094
5160.02,139.18077
5160.03,139.180669
5160.044167,139.180566
5160.064722,139.180449
5160.095,139.180306
5160.139167,139.180123
5160.204444,139.179878
5160.3,139.179539
5160.440278,139.179067
5160.646389,139.178403
5160.948611,139.177464
5161.3925,139.176131
5162.043889,139.17423
5163.0,139.171517
5164.403333,139.167646
5166.463333,139.162146
5169.486944,139.154387
5173.924722,139.143566
5180.438889,139.128714
5190.0,139.108754
5204.033889,139.082622
5206.016944,139.079185
5208.0,139.075805
5208.01,139.095898
5208.02,139.100429
5208.03,139.102768
5208.044167,139.104807
5208.064722,139.106728
5208.095,139.108586
5208.139167,139.11047
5208.204444,139.11251
5208.3,139.114815
5208.440278,139.117437
5208.646389,139.120389
5208.948611,139.123667
5209.3925,139.127238
5210.043889,139.131111
