time,pressure
0.0,170.135013
0.985278,165.982985
2.090556,162.479409
3.200833,159.324255
4.330833,157.030477
4.688611,156.391703
5.514444,155.036729
6.574722,153.46883
7.759167,151.978359
8.768611,150.565314
9.958611,149.15227
11.101667,147.874723
12.253889,146.742351
13.386111,145.571266
14.506389,144.46793
15.663889,143.393629
16.776667,142.338685
17.88,141.312776
18.974444,140.441721
20.089444,139.386777
21.182778,138.486687
22.180278,137.780165
25.2475,134.954076
26.333889,134.044307
27.708889,133.60878
28.837222,133.028077
29.965278,132.389303
30.518611,132.079595
31.307778,131.740851
32.349167,131.111756
33.486389,130.443947
34.726944,129.747103
36.160556,128.953476
37.470833,128.275988
38.582222,127.637215
39.766667,126.979085
40.882778,126.349989
42.095278,125.749929
43.213611,125.26601
44.358333,124.559488
45.481667,123.959428
47.523056,122.759308
49.18,121.781791
50.216667,121.384977
51.3225,123.669076
52.341667,126.127386
53.395833,124.995015
54.545,123.252905
55.171389,122.527026
55.934167,121.762434
57.125833,120.82363
58.098611,120.82363
58.266111,119.904184
59.469444,119.091199
61.305833,117.920114
62.718056,117.010346
62.985833,116.836135
63.948056,116.245753
65.205833,115.519874
65.724722,115.219844
66.841111,114.581071
68.103056,113.893905
69.178056,113.400307
70.243333,112.800247
72.777222,111.580771
73.823889,111.10653
75.133333,110.50647
76.445278,109.790269
77.779167,109.12246
79.031111,108.541757
80.328611,107.951375
81.741667,107.360994
83.063333,106.819004
84.361389,106.315728
85.764722,105.76406
87.097778,105.28014
88.409722,104.815578
89.797222,104.32198
91.138889,103.876774
92.5075,103.412212
94.003611,105.183357
95.669444,105.164
97.902222,103.586423
99.346389,102.792795
100.696944,102.047559
101.971389,101.331359
103.142778,100.837761
104.451111,100.208666
105.795278,99.656998
107.1075,99.1634
108.449444,98.650445
109.836944,98.147169
111.141944,97.692285
112.511944,97.198687
113.959444,96.830908
114.359167,96.714768
115.528889,96.405059
116.054444,96.405059
116.845278,95.97921
117.060556,95.97921
118.045556,95.514648
119.440833,95.030728
119.713056,95.030728
121.363889,94.382276
122.736389,93.956427
123.480556,93.956427
123.928611,93.569292
124.531944,93.569292
125.017778,93.249905
125.537222,93.249905
126.106944,92.911162
126.628889,92.911162
127.728889,92.911162
127.729167,92.911162
128.51,92.117534
128.789444,92.117534
128.789722,92.117534
129.738056,91.740077
129.893889,91.740077
129.894167,91.740077
130.915833,91.381976
131.066389,91.381976
131.066667,91.381976
132.018333,91.052911
132.155278,91.052911
132.155556,91.052911
133.161111,91.052911
133.161389,91.052911
133.218056,90.704489
134.250556,90.704489
134.250833,90.704489
134.383056,90.365746
135.356667,90.365746
135.356944,90.365746
135.650556,90.007645
136.370833,90.007645
136.801389,89.688259
137.4025,89.688259
137.402778,89.688259
137.973611,89.688259
140.158889,88.807525
140.820833,88.807525
141.198333,88.488139
141.869444,88.488139
142.223333,88.226822
142.911667,88.226822
142.911944,88.226822
143.445278,87.897757
144.085833,87.897757
145.335278,87.897757
145.575,87.336411
146.408611,87.336411
146.697222,87.036381
147.664444,87.036381
147.664722,87.036381
147.893889,86.726672
148.730278,86.726672
148.730556,86.726672
148.96,86.475034
149.822778,86.475034
149.823056,86.475034
150.045278,86.175004
150.925278,86.175004
151.1575,85.913688
152.030278,85.913688
152.267222,85.633014
153.167778,85.633014
153.398889,85.342663
154.186389,85.342663
154.186667,85.342663
154.711944,85.032954
155.193889,85.032954
155.194167,85.032954
155.843056,84.76196
156.213889,84.76196
156.214167,84.76196
156.970278,84.510322
157.259444,84.510322
158.155,84.268362
158.306389,84.268362
159.291389,84.007045
159.450833,84.007045
160.450833,83.745729
160.644444,83.745729
160.644722,83.745729
161.582778,83.445699
161.7725,83.445699
162.780833,83.155347
162.903611,83.155347
163.910278,83.155347
163.910556,83.155347
163.969167,82.913388
164.95,82.913388
164.950278,82.913388
165.07,82.66175
166.0625,82.66175
166.19,82.410112
167.103056,82.410112
167.103333,82.410112
167.280556,82.17783
168.157778,82.17783
168.158056,82.17783
169.212778,82.17783
169.213056,82.17783
169.330556,81.732624
170.259722,81.732624
170.502222,81.500343
171.414444,81.500343
171.414722,81.500343
171.703333,81.27774
172.5175,81.27774
172.517778,81.27774
172.825,81.006745
173.710556,81.006745
173.710833,81.006745
173.941944,80.774464
174.839444,80.774464
174.839722,80.774464
175.075833,80.532504
175.965,80.532504
176.209167,80.309902
177.040278,80.309902
177.414444,80.067942
178.066389,80.067942
178.529444,79.845339
179.163889,79.845339
179.164167,79.845339
179.695556,79.651771
180.166111,79.651771
180.166389,79.651771
180.812222,79.400133
181.182222,79.400133
181.96,79.187209
182.188611,79.187209
182.188889,79.187209
183.113056,78.954927
183.2175,78.954927
183.217778,78.954927
184.240278,78.954927
184.305833,78.732324
185.333889,78.732324
185.334167,78.732324
185.460833,78.500043
186.452778,78.500043
186.575,78.325832
187.514444,78.325832
187.514722,78.325832
187.681944,78.054837
188.743611,78.054837
188.743889,78.054837
188.881389,77.841913
189.778333,77.841913
190.026667,77.61931
190.817778,77.61931
190.818056,77.61931
191.371667,77.37735
192.0,77.37735
193.021944,77.37735
193.135556,77.038607
194.0775,77.038607
194.203611,76.854717
195.469167,76.854717
195.656667,76.545009
196.641944,76.545009
196.642222,76.545009
196.900556,76.225622
197.738611,76.225622
197.738889,76.225622
198.118889,75.886879
198.767222,75.886879
198.7675,75.886879
199.286944,75.683632
199.832222,75.683632
199.8325,75.683632
200.675556,75.335211
200.906667,75.335211
200.906944,75.335211
201.921111,75.335211
201.921389,75.335211
202.000278,75.054537
202.926389,75.054537
203.563056,74.744829
204.078889,74.744829
204.950278,74.444799
205.106944,74.444799
205.107222,74.444799
206.129722,74.444799
206.13,74.444799
206.275278,74.193161
207.209444,74.193161
207.209722,74.193161
207.673889,73.922166
208.220556,73.922166
208.220833,73.922166
208.979444,73.670528
209.247778,73.670528
210.2625,73.457603
210.693056,73.457603
210.9875,73.322106
211.721111,73.322106
211.721389,73.322106
212.139444,73.089825
212.763333,73.089825
213.496111,72.886579
213.919722,72.886579
213.92,72.886579
215.140833,72.886579
215.196944,72.586549
216.223889,72.586549
217.016944,72.267162
217.285,72.267162
218.252222,72.102629
218.391389,72.102629
218.391667,72.102629
219.405278,72.102629
219.405556,72.102629
219.493611,71.850991
220.44,71.850991
220.760833,71.657423
221.6125,71.657423
222.055833,71.454177
222.886111,71.454177
222.886389,71.454177
223.338056,71.202539
223.941389,71.202539
223.941667,71.202539
224.600278,70.892831
225.032778,70.892831
225.895,70.689585
226.050833,70.689585
227.081667,70.41859
227.224722,70.41859
227.225,70.41859
228.255556,70.41859
228.342222,70.225022
229.271667,70.225022
229.271944,70.225022
229.568611,70.002419
230.389167,70.002419
230.389444,70.002419
230.836111,69.750781
231.503889,69.750781
231.504167,69.750781
232.055556,69.528178
232.623889,69.528178
232.624167,69.528178
233.34,69.315254
233.654167,69.315254
233.654444,69.315254
234.58,69.102329
234.766389,69.102329
234.766667,69.102329
235.779444,69.102329
235.914722,68.928118
236.874167,68.928118
236.874444,68.928118
237.146111,68.695837
237.966667,68.695837
237.966944,68.695837
238.156667,68.560339
239.135,68.560339
239.478611,68.405485
240.268056,68.405485
240.268333,68.405485
240.338056,68.337737
240.895,68.211918
241.378889,68.211918
241.574167,68.124812
242.334722,68.01835
242.4625,68.01835
243.474444,68.01835
243.474722,68.01835
243.588611,67.863496
244.611389,67.863496
244.611667,67.863496
244.890556,67.698963
245.731111,67.698963
246.140278,67.53443
246.830556,67.53443
246.830833,67.53443
247.362222,67.379576
247.849722,67.379576
248.683611,67.215044
248.941667,67.215044
248.941944,67.215044
249.951944,67.069868
250.121667,67.069868
251.126389,67.069868
251.126667,67.069868
251.184722,66.895657
252.164722,66.895657
252.165,66.895657
252.431667,66.750481
253.302778,66.750481
253.761111,66.57627
254.395278,66.57627
254.395556,66.57627
255.108889,66.411738
255.420556,66.411738
255.420833,66.411738
256.4,66.256883
256.68,66.256883
256.680278,66.256883
257.691111,66.111708
257.847222,66.111708
258.870833,66.111708
258.938056,65.937497
259.9175,65.937497
259.917778,65.937497
260.428056,65.772964
260.971389,65.772964
260.971667,65.772964
261.524722,65.627788
262.039167,65.627788
263.170278,65.627788
263.170556,65.627788
263.634444,65.405185
264.3025,65.405185
264.302778,65.405185
264.977778,65.240653
265.345278,65.240653
265.345556,65.240653
266.191389,65.095477
266.390833,65.095477
266.391111,65.095477
267.373611,64.979336
267.491389,64.979336
268.5125,64.979336
268.590833,64.863196
269.602778,64.863196
269.603056,64.863196
269.884722,64.71802
270.379722,64.650271
270.654722,64.650271
271.555556,64.543809
271.747778,64.543809
271.748056,64.543809
272.793889,64.543809
272.794167,64.543809
272.955833,64.388955
273.816389,64.388955
273.816667,64.388955
274.219167,64.263136
274.919722,64.263136
274.92,64.263136
275.510556,64.17603
275.953611,64.17603
276.812778,64.050211
277.031667,64.050211
277.031944,64.050211
278.038611,64.050211
278.099444,63.924392
279.075,63.924392
279.075278,63.924392
279.357222,63.788895
280.186667,63.788895
280.186944,63.788895
280.582222,63.769538
281.27,63.769538
281.270278,63.769538
281.805556,63.672754
282.329722,63.672754
282.33,63.672754
282.955556,63.672754
283.335833,63.643719
283.478056,63.643719
284.496111,63.643719
284.496389,63.643719
284.575556,63.614684
285.533889,63.614684
285.534167,63.614684
285.846389,63.411437
286.861111,63.411437
287.658056,63.198513
287.905556,63.198513
287.905833,63.198513
288.926944,63.198513
288.927222,63.198513
289.3325,63.014624
290.000556,63.014624
290.553611,62.859769
291.138333,62.859769
291.138611,62.859769
291.876944,62.753307
292.21,62.753307
292.210278,62.753307
293.100278,62.772664
293.305556,62.772664
293.305833,62.772664
294.315556,62.714594
294.481389,62.714594
295.488611,62.714594
295.553056,62.530704
296.696944,62.530704
296.697222,62.530704
296.845,62.482312
297.828611,62.482312
297.828889,62.482312
298.100278,62.656523
298.939167,62.656523
298.939444,62.656523
299.315,62.569418
299.978889,62.569418
299.979167,62.569418
300.571667,62.356493
300.991389,62.356493
300.991667,62.356493
301.8275,62.569418
302.075833,62.569418
302.076111,62.569418
303.120556,62.453277
303.270278,62.453277
304.306111,62.453277
304.306389,62.453277
304.3975,62.153247
305.388333,62.153247
305.388611,62.153247
305.705,62.230674
306.663333,62.230674
306.974444,62.337137
307.885,62.337137
308.168889,62.143569
308.999167,62.143569
308.999444,62.143569
309.435,62.985588
310.087222,62.985588
310.0875,62.985588
311.142778,62.985588
311.143056,62.985588
311.454167,64.41799
313.045556,65.230974
314.503611,65.947175
315.934722,66.614984
317.343611,67.273114
318.760556,67.863496
320.184167,68.415164
321.585278,68.966832
323.053889,69.547535
324.456389,70.099203
325.918611,70.631514
327.301944,71.163826
328.769167,71.715494
330.180556,72.228448
331.569444,72.751081
333.0425,73.283392
333.7875,73.564066
335.661944,74.241553
337.350833,74.91904
338.807778,75.402959
340.197778,75.906235
341.678889,76.47726
343.083889,76.999893
344.528333,77.522526
346.026389,78.064516
347.448056,78.616184
348.958333,79.206565
350.406389,79.748555
351.875833,80.309902
353.188056,80.842213
354.497778,81.335811
356.025,81.926192
356.503056,82.129438
357.668889,82.594001
359.6825,83.387629
360.827222,83.852191
361.579722,84.152221
362.584167,84.558713
362.816667,84.655497
363.344167,84.858744
363.768056,85.032954
364.89,85.487839
366.315,86.068542
367.862778,86.687959
369.29,87.268662
370.779444,87.926792
372.197222,88.488139
373.603056,89.010772
375.103889,89.630188
376.525278,90.201213
378.023611,90.791595
379.4425,91.352941
380.920278,91.933645
382.369722,92.514348
383.878611,93.104729
386.318611,94.043533
387.848056,94.624236
389.385,95.195261
390.756389,95.708216
391.069444,95.882427
392.518611,96.356667
394.013611,96.898657
395.448611,97.42129
396.903611,97.924566
398.352778,98.437521
399.866389,99.008546
401.282778,99.492465
402.789444,99.937671
404.216944,100.411912
407.479167,101.495891
409.503333,102.066916
410.937778,102.502443
412.288611,102.908936
413.898889,103.441247
415.430556,103.828382
416.905833,104.234875
418.076111,104.544583
419.467778,104.941397
420.819444,105.299497
421.103056,105.367246
421.214167,105.40596
421.398333,105.502743
422.869444,105.82213
424.273611,106.189909
425.728889,106.548009
427.125278,106.944823
428.51,107.215818
429.944167,107.56424
431.788611,107.990089
433.873333,108.5224
435.243056,108.82243
436.668056,109.083747
438.071667,109.374098
439.469167,109.66445
440.891667,110.032229
442.271667,110.293545
443.679722,110.525826
445.087778,110.796821
446.479444,111.067816
447.881667,111.329132
449.228056,111.571092
452.234722,112.180831
453.783056,112.393755
455.678889,112.713142
457.825556,113.061564
459.208611,113.293845
460.557222,113.50677
461.971389,113.729372
463.507222,114.019724
464.772778,114.155222
466.195278,114.368146
467.557778,114.561714
468.994444,114.76496
470.369167,115.035955
471.753611,115.161774
473.108056,115.335985
474.434444,115.519874
475.140556,115.616658
475.964167,115.72312
477.345278,115.90701
482.076389,116.497391
483.432778,116.719994
485.027778,116.86517
486.495556,117.029703
488.013889,117.213592
489.415,117.378124
490.876667,117.532979
492.286389,117.697511
493.684167,117.852365
495.073056,118.00722
496.429722,118.142717
497.860556,118.297571
499.300833,118.452425
500.736667,118.597601
502.128333,118.810526
503.0325,118.839561
503.888889,118.984737
506.294722,119.158948
507.777778,119.304124
509.383611,118.897631
510.881944,119.149269
512.273333,119.333159
513.843611,119.517048
515.240556,119.671902
516.664722,119.826756
518.075556,119.981611
519.426944,120.117108
520.859722,120.262284
523.606111,120.513922
525.361111,120.678455
527.766944,120.901057
528.8725,120.988163
529.740278,121.055912
531.155556,121.181731
532.598056,121.30755
533.171667,121.355942
533.555278,121.384977
534.541111,121.472082
536.118611,121.597901
536.4875,121.626936
538.033056,121.752755
539.599444,121.926966
541.058611,121.985037
542.428056,122.091499
543.826389,122.188283
545.226667,122.304424
546.746667,122.420564
548.164722,122.585097
549.554444,122.614132
551.801944,122.846413
553.734167,122.981911
555.1975,123.020624
556.685556,123.127086
558.282222,123.233549
559.820833,123.398081
561.1975,123.417438
562.700833,123.5239
564.140556,123.688433
565.591944,123.717468
567.123056,123.814252
568.509167,123.901357
569.925,123.988463
571.391944,124.143317
572.9025,124.182031
574.349167,122.56574
580.091111,105.715668
581.781111,102.134665
583.127222,99.947349
584.571111,97.653571
586.1425,95.359794
587.547778,93.424116
589.113056,91.527152
590.511389,89.930218
591.995833,88.401033
593.414167,87.026702
594.888056,85.66205
596.353333,84.442573
597.843333,83.339237
599.891389,81.955227
602.036111,80.697037
603.461667,79.951801
604.9675,79.216244
606.387222,79.012998
608.03,78.703289
609.413333,78.46133
610.875278,78.441973
612.258889,78.538757
613.778889,78.625862
615.129722,78.57747
616.722222,78.538757
618.120833,78.451651
619.542222,78.345189
620.981667,78.209691
623.888611,77.938697
623.888889,77.938697
625.575,77.658023
626.990278,77.483812
628.521944,77.280566
630.08,77.096677
631.411667,76.903109
632.906389,76.680506
634.343889,76.428868
635.821389,76.264336
637.171389,76.012698
638.361111,76.012698
638.585,75.867522
640.073611,75.606205
641.440833,75.402959
642.936944,75.199713
644.397222,75.025502
645.891111,74.725472
647.882778,74.386729
648.401944,74.386729
650.334722,73.999593
651.887222,73.738277
653.380278,73.505995
654.933333,73.235
656.466667,72.983362
657.950278,72.741403
659.348889,72.538157
660.805278,72.305875
662.326944,72.083272
663.769167,71.870348
665.133333,71.657423
666.128056,71.657423
666.480833,71.454177
667.83,71.260609
669.223611,71.047685
670.201389,70.941223
670.412778,70.873474
670.475,70.873474
671.950278,70.650871
672.085,70.650871
672.805833,70.650871
673.476111,70.466982
673.538611,70.466982
675.074444,70.195987
675.138889,70.195987
676.596667,69.973384
676.661389,69.973384
678.183333,69.770138
679.179722,69.770138
679.570556,69.557213
681.039444,69.344289
682.325278,69.21847
683.774444,69.044259
685.174444,68.821656
686.569167,68.647445
686.633611,68.647445
687.644722,68.647445
688.048056,68.463556
689.411111,68.328058
689.473333,68.328058
690.810833,68.144169
690.873056,68.144169
692.173333,68.01835
693.670556,67.737677
697.149444,67.47636
697.218333,67.47636
698.681389,67.292471
698.743889,67.292471
700.096111,67.17633
701.521944,67.040833
702.971389,66.963406
704.545,66.779516
704.607222,66.779516
706.139444,66.673054
707.681667,66.469808
709.099444,66.537557
710.544167,66.431094
712.075,66.285918
713.5,66.150421
715.066111,66.014924
717.276111,65.792321
720.0775,65.521326
720.077778,65.521326
720.211111,65.521326
722.232222,65.31808
724.275278,65.13419
726.416389,64.940623
727.877222,64.814804
728.070833,64.805125
728.441944,64.77609
728.506667,64.77609
731.792778,64.485738
733.513889,64.330884
735.288056,64.224422
737.1425,64.079246
737.202778,64.079246
739.056944,63.876
739.116944,63.876
740.938056,64.2341
743.888333,66.392381
744.019722,66.392381
745.882778,67.882852
745.943056,67.882852
747.703889,69.199113
747.763889,69.199113
749.827222,70.592801
749.889444,70.592801
752.136944,72.073594
753.885556,73.06079
753.955,73.06079
755.488889,73.825382
755.553056,73.825382
756.998889,74.56094
757.061667,74.56094
758.625,75.306175
758.692222,75.306175
760.1675,75.954627
760.234722,75.954627
761.596944,76.593401
761.659722,76.593401
763.201944,77.290245
763.264722,77.290245
764.698333,77.948375
764.770278,77.948375
766.148056,78.567792
766.212778,78.567792
770.186944,80.271188
770.249722,80.271188
771.816111,80.968032
771.878889,80.968032
773.375278,81.655197
773.44,81.655197
775.461667,82.47786
775.524444,82.47786
777.045833,83.126312
777.108333,83.126312
778.596944,83.774764
778.659722,83.774764
780.171944,84.471608
780.234722,84.471608
781.687778,85.052311
781.750278,85.052311
783.198056,85.72012
783.260556,85.72012
784.678889,86.291145
784.741667,86.291145
786.147778,86.929918
786.210556,86.929918
787.583056,87.5203
787.650278,87.5203
789.055278,88.149395
789.118056,88.149395
791.76,89.194661
791.895278,89.194661
793.375556,89.833435
793.438056,89.833435
794.981389,90.491565
795.043889,90.491565
796.398333,91.072268
796.461111,91.072268
797.873333,91.66265
797.935833,91.66265
799.320833,92.243353
799.383333,92.243353
800.880833,92.872448
800.940833,92.872448
802.965833,93.704789
803.026111,93.704789
804.846667,94.450025
804.906667,94.450025
806.716389,95.243653
806.776389,95.243653
808.461389,95.882427
808.521389,95.882427
810.875556,96.82123
810.935833,96.82123
812.903056,97.595501
812.963056,97.595501
815.852778,98.708516
815.988333,98.708516
817.299444,99.269862
817.366667,99.269862
818.742778,99.869922
818.805278,99.869922
820.128056,100.324806
820.190833,100.324806
821.510556,100.828082
821.573056,100.828082
822.926111,101.350715
822.988889,101.350715
824.410278,101.892705
824.4775,101.892705
825.930556,102.434695
825.993056,102.434695
827.305,102.976684
827.367778,102.976684
828.733333,103.489639
828.795833,103.489639
830.108889,103.915488
830.176111,103.915488
831.523889,104.457478
831.591111,104.457478
832.994722,104.902683
833.0575,104.902683
834.421944,105.454351
834.488889,105.454351
835.911111,105.889879
835.973889,105.889879
837.374722,106.36412
837.437222,106.36412
839.787222,107.128712
839.9225,107.128712
841.438889,107.641667
842.938056,108.096551
844.359167,108.5224
845.830278,108.957928
847.291667,109.383777
848.751389,109.809626
849.562778,110.099977
850.378056,110.26451
851.847778,110.690359
853.242222,111.077494
