time,pressure
0.0,158.375727
0.433333,153.197789
0.916667,148.194063
1.416667,144.013
1.883333,140.6546
2.316667,138.128541
2.8,135.728301
3.266667,133.628091
3.8,131.644021
4.166667,130.434223
4.55,129.272816
5.033333,127.937199
5.516667,126.804828
5.9,125.943451
6.316667,125.120788
6.783333,124.278768
7.25,123.485141
7.766667,122.71087
8.183333,122.159202
8.633333,121.530107
9.083333,120.959082
9.483333,120.465484
10.483333,119.246007
11.0,118.616912
11.433333,118.094279
11.916667,117.600681
12.4,117.087727
12.866667,116.642521
13.3,116.197315
13.85,115.665004
14.3,115.239155
14.85,114.735879
15.3,114.329386
15.833333,113.932573
16.333333,113.555115
16.85,113.206694
17.333333,112.887307
17.833333,112.616312
18.3,112.354995
18.8,112.084001
19.283333,111.871076
19.8,111.629116
20.233333,111.445227
20.666667,111.280694
21.116667,111.106484
21.65,110.922594
22.566667,110.632243
23.4,110.419318
23.966667,110.341891
24.383333,110.16768
24.85,109.887007
25.3,109.645047
25.8,109.393409
26.183333,109.190163
26.683333,108.938525
27.133333,108.7256
27.566667,108.522354
28.016667,108.30943
28.116667,108.30943
28.45,108.115862
29.0,107.883581
29.116667,107.883581
29.383333,107.883581
29.483333,107.670656
29.9,107.486767
30.4,107.486767
30.45,107.264164
30.65,107.264164
31.0,107.031882
31.466667,106.86735
31.683333,106.86735
31.933333,106.673782
32.0,106.673782
32.383333,106.50925
32.883333,106.315682
33.0,106.315682
33.266667,106.315682
33.466667,106.093079
34.216667,105.851119
34.266667,105.851119
34.583333,105.851119
34.666667,105.66723
35.083333,105.493019
35.516667,105.493019
35.566667,105.30913
36.016667,105.144597
36.1,105.144597
36.5,104.960708
37.033333,104.757462
37.133333,104.757462
37.416667,104.757462
37.566667,104.573572
38.05,104.418718
38.45,104.418718
38.583333,104.254185
38.716667,104.254185
39.116667,104.10901
39.65,103.963834
39.75,103.963834
40.0,103.963834
40.1,103.876728
40.55,103.779944
41.033333,103.692839
41.1,103.692839
41.4,103.692839
41.533333,103.634769
42.016667,103.557341
42.416667,103.557341
42.533333,103.479914
42.683333,103.479914
43.033333,103.412166
43.5,103.344417
43.683333,103.344417
43.95,103.344417
44.0,103.257311
44.483333,103.199241
44.983333,103.199241
45.033333,103.112136
45.233333,103.112136
45.466667,103.054065
45.983333,102.995995
46.1,102.976638
46.25,102.976638
46.5,102.976638
46.583333,102.918568
47.05,102.879854
47.483333,102.841141
47.533333,102.841141
47.8,102.841141
47.966667,102.783071
48.35,102.763714
48.8,102.763714
48.85,102.754035
49.05,102.754035
49.283333,102.725
49.766667,102.695965
50.05,102.695965
50.2,102.647573
50.333333,102.647573
50.683333,102.599181
51.15,102.570146
51.333333,102.570146
51.6,102.570146
51.65,102.541111
52.116667,102.541111
52.6,102.541111
52.65,102.502397
52.85,102.502397
53.1,102.337865
53.583333,102.163654
53.85,102.163654
54.15,101.979764
54.2,101.979764
54.683333,101.776518
55.166667,101.611986
55.233333,101.611986
55.483333,101.611986
55.716667,101.428096
56.1,101.311956
56.533333,101.311956
56.616667,101.137745
56.8,101.137745
57.083333,100.973212
57.466667,100.847393
57.833333,100.847393
58.1,100.847393
58.433333,100.56672
58.883333,100.431222
59.116667,100.431222
59.3,100.286047
59.383333,100.286047
59.733333,100.140871
60.133333,99.995695
60.416667,99.995695
60.583333,99.860198
60.683333,99.860198
61.1,99.685987
61.55,99.540811
61.7,99.540811
61.966667,99.540811
62.083333,99.376278
62.583333,99.231102
63.016667,99.231102
63.1,99.076248
63.283333,99.076248
63.6,98.902037
64.066667,98.756861
64.283333,98.756861
64.566667,98.58265
64.65,98.58265
65.083333,98.437475
65.6,98.321334
65.7,98.321334
65.95,98.321334
66.116667,98.185837
66.516667,98.089053
67.0,98.089053
67.083333,97.953555
67.25,97.953555
67.566667,97.847093
68.1,97.740631
68.283333,97.740631
68.533333,97.740631
68.583333,97.643847
69.533333,97.643847
69.8,97.643847
69.9,97.401887
70.316667,97.334139
70.833333,97.237355
70.9,97.237355
71.166667,97.237355
71.266667,97.179284
71.766667,97.092179
72.183333,97.092179
72.233333,97.014752
72.433333,97.014752
72.716667,96.927646
73.2,97.885807
73.433333,97.885807
73.666667,97.034109
73.716667,97.034109
74.133333,96.66633
74.35,96.511476
74.55,96.3663
74.7,96.259838
74.783333,96.259838
74.866667,96.163054
75.033333,96.163054
75.15,95.998521
75.35,95.88238
75.833333,95.630742
76.05,95.630742
76.266667,95.408139
76.333333,95.408139
76.433333,95.330712
76.966667,95.069396
77.35,95.069396
77.5,94.837115
77.633333,94.837115
77.966667,94.633869
78.5,94.449979
78.633333,94.449979
78.883333,94.314482
78.95,94.314482
79.35,94.149949
79.816667,93.975738
79.983333,93.975738
80.233333,93.830562
80.283333,93.830562
80.7,93.656351
81.166667,93.491819
81.3,93.491819
81.6,93.356321
81.683333,93.356321
82.483333,93.104683
82.683333,93.104683
82.95,92.988543
83.0,92.988543
83.45,92.833688
83.933333,92.678834
84.016667,92.678834
84.266667,92.678834
84.333333,92.543337
84.816667,92.407839
85.3,92.272342
85.35,92.272342
85.616667,92.272342
85.75,92.156201
86.166667,92.040061
86.683333,91.894885
86.733333,91.894885
87.0,91.894885
87.1,91.788423
87.583333,91.68196
88.066667,91.585177
88.116667,91.585177
88.383333,91.585177
88.466667,91.498071
88.916667,91.410966
89.366667,91.285147
89.433333,91.285147
89.683333,91.285147
89.783333,91.178684
90.266667,91.062544
90.716667,91.062544
90.766667,90.946403
90.983333,90.946403
91.2,90.859297
91.733333,90.752835
92.016667,90.752835
92.166667,90.675408
92.3,90.675408
92.583333,90.617338
92.866667,90.617338
93.033333,90.539911
93.516667,90.462484
94.016667,90.385057
94.5,90.317308
94.983333,90.268916
95.466667,90.220524
95.983333,90.162454
96.45,90.472162
97.016667,92.562694
97.466667,92.011026
97.95,91.56582
98.35,91.314182
98.866667,91.02383
99.4,90.762514
99.866667,90.559267
100.283333,90.3657
100.733333,90.201167
101.183333,90.036635
101.7,89.901137
102.083333,89.784997
102.483333,89.688213
103.033333,89.533358
103.433333,89.436575
103.9,89.330112
104.333333,89.243007
104.783333,89.175258
105.183333,89.107509
105.633333,89.039761
106.466667,88.884907
106.983333,88.807479
107.433333,88.739731
107.933333,88.662304
108.366667,88.594555
108.833333,88.536485
109.316667,88.488093
109.816667,88.420344
110.266667,88.352595
110.8,88.304203
111.266667,88.255811
111.683333,88.197741
112.15,88.159027
112.583333,88.129992
113.033333,88.091279
113.516667,88.02353
114.0,87.994495
114.366667,87.96546
114.85,87.926746
115.25,87.878354
115.716667,87.829962
116.2,87.791249
116.666667,87.742857
117.083333,87.713822
117.6,87.684786
118.116667,87.646073
118.316667,87.646073
118.983333,87.617038
119.316667,87.617038
119.45,87.578324
119.983333,87.520254
120.45,87.471862
120.966667,87.433148
121.45,87.375078
121.866667,87.326686
122.25,87.307329
122.75,87.249259
123.183333,87.191189
123.733333,87.094405
124.166667,87.026656
124.65,86.968586
125.116667,86.88148
125.55,86.813732
126.05,86.716948
126.566667,86.629842
127.1,86.513702
127.566667,86.416918
128.016667,86.339491
128.5,86.252385
128.916667,86.184636
129.683333,86.049139
130.283333,85.942677
130.766667,85.884606
131.183333,85.826536
131.716667,85.739431
132.133333,85.68136
132.533333,85.62329
132.95,85.574898
133.4,85.526506
133.883333,85.487793
134.316667,85.449079
134.766667,85.400687
135.233333,85.361974
135.75,85.313582
136.116667,85.284546
136.583333,85.245833
137.05,85.207119
137.516667,85.178084
138.0,85.149049
138.466667,85.110336
138.933333,85.052265
139.4,85.032908
139.883333,84.994195
140.383333,84.96516
140.883333,84.936125
141.333333,84.907089
141.866667,84.858697
142.3,84.819984
142.8,84.790949
143.3,84.761914
143.75,84.732878
144.25,84.713522
144.783333,84.684486
145.216667,84.645773
145.75,84.578024
145.933333,84.578024
146.166667,84.539311
146.583333,84.519954
146.966667,84.519954
147.016667,84.48124
147.366667,84.48124
147.433333,84.432848
147.966667,84.384456
148.366667,84.384456
148.433333,84.326386
148.633333,84.326386
148.883333,84.277994
149.333333,84.239281
149.65,84.239281
149.816667,84.161854
149.933333,84.161854
150.25,84.12314
150.75,84.06507
150.95,84.06507
151.183333,84.006999
151.233333,84.006999
151.716667,83.929572
152.166667,83.852145
152.233333,83.852145
152.516667,83.852145
152.566667,83.794075
153.016667,83.726326
153.633333,83.648899
153.733333,83.648899
153.983333,83.648899
154.266667,83.542437
154.683333,83.484366
155.0,83.484366
155.183333,83.406939
155.266667,83.406939
155.35,83.406939
155.633333,83.319834
155.866667,83.319834
156.083333,83.242407
156.516667,83.184336
156.9,83.184336
156.983333,83.097231
157.15,83.097231
157.466667,83.019804
157.933333,82.932698
158.15,82.932698
158.35,82.893985
158.416667,82.893985
158.85,82.835915
159.3,82.758487
159.416667,82.758487
159.683333,82.758487
159.75,82.700417
160.2,82.632668
160.566667,82.593955
160.683333,82.593955
160.933333,82.593955
161.033333,82.535885
161.483333,82.497171
161.933333,82.429422
162.0,82.429422
162.266667,82.429422
162.4,82.371352
162.883333,82.32296
163.316667,82.26489
163.383333,82.26489
163.65,82.26489
163.8,82.226176
164.3,82.177784
164.666667,82.177784
164.75,82.129392
164.916667,82.129392
165.166667,82.071322
165.733333,81.993895
165.933333,81.993895
166.166667,81.945503
166.233333,81.945503
166.666667,81.897111
167.15,81.848719
167.233333,81.848719
167.5,81.848719
167.633333,81.819684
168.05,81.742257
168.533333,81.713222
168.633333,81.713222
168.883333,81.713222
169.033333,81.674508
169.5,81.635794
169.666667,81.635794
169.933333,81.597081
170.35,81.558367
170.816667,81.509975
171.25,81.48094
171.75,81.42287
172.166667,81.393835
172.65,81.335764
173.566667,81.248659
174.016667,81.209945
174.5,81.171232
174.95,81.113162
175.383333,81.103483
175.866667,81.074448
176.3,81.055091
176.766667,81.016378
177.2,80.997021
177.666667,80.967986
178.5,80.929272
178.933333,80.919594
179.366667,80.890559
179.85,80.900237
180.283333,80.890559
180.75,80.871202
181.233333,80.82281
181.633333,80.784096
182.033333,80.755061
182.516667,80.735704
182.983333,80.706669
183.466667,80.706669
183.933333,80.687313
184.333333,80.687313
184.85,80.677634
185.316667,80.658277
185.8,80.638921
186.316667,80.629242
186.766667,80.629242
187.216667,80.638921
187.683333,80.638921
188.133333,80.629242
188.583333,80.619564
189.116667,80.600207
189.533333,80.600207
190.066667,80.600207
190.533333,80.571172
191.016667,80.532458
191.483333,80.52278
191.883333,80.493745
192.316667,80.46471
192.85,80.445353
193.316667,80.396961
193.816667,80.358247
194.183333,80.319534
194.65,80.28082
195.1,80.232428
195.6,80.193715
196.05,80.155001
196.466667,80.125966
196.916667,80.096931
197.383333,80.058217
197.85,80.029182
198.283333,80.019504
198.733333,79.990469
199.166667,79.942077
200.066667,79.893685
200.466667,79.874328
200.95,79.845293
201.616667,79.825936
202.316667,79.816258
202.866667,79.796901
203.316667,79.787223
203.8,79.767866
204.216667,79.758187
204.683333,79.767866
205.2,79.748509
205.7,79.748509
206.183333,79.738831
206.7,79.729152
207.15,79.729152
207.683333,79.700117
208.083333,79.661404
208.533333,79.62269
209.033333,79.56462
209.45,79.554941
209.966667,79.525906
210.45,79.496871
210.9,79.477514
211.366667,79.448479
211.883333,79.409765
212.3,79.400087
212.8,79.371052
213.266667,79.371052
213.75,79.342017
214.2,79.32266
214.666667,79.312982
215.133333,79.293625
215.683333,79.26459
216.1,79.26459
216.616667,79.245233
217.183333,79.254911
217.666667,79.26459
218.083333,79.254911
218.483333,79.245233
218.916667,79.245233
219.416667,79.245233
219.916667,79.274268
220.366667,79.312982
220.816667,79.361374
221.266667,79.38073
221.8,79.390409
222.25,79.400087
222.733333,79.409765
223.233333,79.429122
223.716667,79.458157
224.2,79.467836
224.733333,79.477514
225.166667,79.487193
225.8,79.506549
226.683333,79.525906
227.183333,79.525906
227.683333,79.525906
228.15,79.525906
228.566667,79.516228
229.05,79.506549
229.583333,79.506549
230.15,79.506549
230.6,79.516228
231.15,79.516228
231.55,79.516228
231.983333,79.516228
232.45,79.496871
232.9,79.487193
233.383333,79.477514
233.933333,79.477514
234.35,79.477514
234.883333,79.467836
235.3,79.467836
235.833333,79.467836
236.3,79.487193
236.716667,79.487193
237.216667,79.477514
238.133333,79.458157
238.683333,79.448479
239.1,79.429122
239.583333,79.429122
240.1,79.419444
240.533333,79.409765
241.05,79.409765
241.566667,79.409765
242.066667,79.400087
242.5,79.400087
242.95,79.390409
243.366667,79.38073
243.833333,79.371052
244.266667,79.38073
244.733333,79.38073
244.966667,79.38073
245.166667,79.390409
245.633333,79.400087
246.0,79.400087
246.116667,79.419444
246.55,79.409765
247.016667,79.409765
247.516667,79.419444
248.0,79.400087
248.433333,79.390409
248.933333,79.38073
249.366667,79.361374
249.883333,79.332338
250.733333,79.32266
251.183333,79.303303
251.683333,79.274268
252.1,79.254911
252.583333,79.225876
253.066667,79.206519
253.55,79.196841
254.1,79.167806
254.55,79.138771
255.083333,79.129092
255.533333,79.109735
256.016667,79.090379
256.466667,79.071022
256.933333,79.061344
257.416667,79.02263
257.966667,79.012952
258.466667,78.993595
259.016667,78.974238
259.466667,78.945203
259.966667,78.935524
260.433333,78.925846
260.9,78.906489
261.333333,78.916168
261.833333,78.916168
262.166667,78.906489
262.583333,78.896811
263.133333,78.896811
265.1,95.533959
265.583333,93.298251
266.083333,91.662604
266.55,90.414092
267.016667,89.301077
267.55,88.178384
268.0,87.3654
268.133333,87.12344
268.433333,86.620164
269.1,85.574898
270.033333,84.539311
270.433333,84.18121
270.916667,83.784396
271.366667,83.406939
271.883333,83.029482
272.35,82.700417
272.533333,82.700417
272.866667,82.410065
273.283333,82.177784
273.6,82.177784
273.866667,81.887433
274.766667,81.471262
275.266667,81.238981
275.8,81.026056
276.25,80.88088
276.783333,80.667956
277.233333,80.513102
277.75,80.338891
278.266667,80.174358
278.716667,80.048539
279.166667,79.913042
279.716667,79.767866
280.183333,79.642047
280.633333,79.554941
281.116667,79.448479
281.6,79.342017
282.05,79.254911
282.483333,79.177484
283.0,79.100057
283.483333,78.983916
283.966667,78.906489
284.483333,78.809705
285.016667,78.712922
285.5,78.645173
286.066667,78.548389
286.466667,78.48064
286.983333,78.403213
287.416667,78.345143
287.883333,78.277394
288.35,78.209645
288.866667,78.141897
289.3,78.093505
289.766667,78.045113
290.466667,77.967686
290.883333,77.928972
291.25,77.909615
291.75,77.861223
292.25,77.812832
292.716667,77.774118
293.166667,77.745083
293.633333,77.687013
294.033333,77.648299
294.45,77.609585
294.933333,77.58055
295.333333,77.52248
295.783333,77.493445
296.25,77.445053
296.7,77.406339
297.133333,77.377304
297.85,77.299877
298.6,77.22245
299.083333,77.193415
299.566667,77.145023
300.033333,77.106309
300.516667,77.067596
301.0,77.048239
301.5,76.999847
302.0,76.970812
302.433333,76.92242
302.983333,76.893385
303.4,76.874028
303.916667,76.835314
304.366667,76.815958
304.866667,76.777244
305.366667,76.748209
305.9,76.699817
306.35,76.670782
306.85,76.62239
307.3,76.593355
307.783333,76.56432
308.266667,76.525606
308.7,76.496571
309.116667,76.467536
309.666667,76.438501
310.116667,76.409465
310.166667,76.409465
310.616667,76.399787
311.083333,76.390109
311.216667,76.390109
311.433333,76.370752
311.866667,76.351395
312.35,76.32236
312.866667,76.293325
313.3,76.26429
313.816667,76.244933
314.2,76.225576
314.65,76.196541
315.1,76.177184
315.583333,76.177184
316.05,76.157827
316.466667,76.148149
316.933333,76.138471
317.75,76.099757
318.216667,76.090079
318.7,76.051365
319.116667,76.061043
319.65,76.051365
320.1,76.012652
320.516667,75.993295
321.016667,75.96426
321.466667,75.944903
321.966667,75.906189
322.983333,75.896511
323.483333,75.906189
324.0,75.906189
324.4,75.915868
324.866667,75.906189
325.333333,75.877154
325.833333,75.867476
326.283333,75.848119
326.733333,75.838441
327.116667,75.819084
327.6,75.809405
328.116667,75.790049
328.55,75.78037
329.133333,75.78037
329.666667,75.770692
330.183333,75.751335
330.683333,75.751335
331.133333,75.751335
331.55,75.7223
332.016667,75.702943
332.483333,75.702943
333.0,75.702943
333.416667,75.683586
333.916667,75.673908
334.316667,75.693265
334.733333,75.702943
335.116667,75.702943
335.583333,75.702943
336.05,75.7223
336.516667,75.751335
336.95,75.731978
337.383333,75.770692
337.833333,75.790049
338.233333,75.809405
338.65,75.819084
339.116667,75.828762
339.533333,75.848119
340.016667,75.848119
340.416667,75.848119
340.866667,75.848119
341.3,75.828762
341.783333,75.799727
342.183333,75.78037
342.583333,75.751335
343.05,75.751335
343.5,75.7223
344.0,75.702943
344.416667,75.702943
344.866667,75.702943
345.266667,75.702943
346.0,75.673908
346.7,75.654551
347.233333,75.654551
347.75,75.654551
348.266667,75.644873
348.766667,75.654551
349.25,75.654551
349.733333,75.644873
350.2,75.654551
350.683333,75.654551
351.1,75.66423
351.466667,75.66423
352.016667,75.66423
352.55,75.66423
353.066667,75.673908
353.583333,75.683586
354.1,75.693265
354.566667,75.702943
355.05,75.712622
355.516667,75.7223
356.016667,75.751335
356.416667,75.770692
356.916667,75.799727
357.366667,75.828762
357.883333,75.828762
358.35,75.838441
358.883333,75.828762
359.316667,75.809405
359.816667,75.809405
360.283333,75.790049
360.7,75.78037
361.15,75.78037
361.566667,75.770692
361.95,75.761013
362.35,75.761013
362.816667,75.761013
363.25,75.761013
363.75,75.731978
364.133333,75.731978
364.583333,75.7223
364.966667,75.731978
365.333333,75.731978
365.85,75.7223
366.316667,75.712622
366.783333,75.693265
367.216667,75.693265
367.683333,75.693265
368.116667,75.693265
368.583333,75.693265
369.05,75.683586
369.5,75.693265
369.966667,75.702943
370.85,75.731978
371.35,75.761013
371.9,75.761013
372.4,75.761013
372.85,75.770692
373.316667,75.770692
373.816667,75.770692
374.266667,75.761013
374.7,75.731978
375.183333,75.731978
375.6,75.712622
377.166667,75.712622
377.683333,75.702943
378.166667,75.702943
378.6,75.7223
379.216667,75.731978
379.733333,75.751335
380.266667,75.770692
380.783333,75.790049
381.266667,75.790049
381.766667,75.790049
382.283333,75.770692
382.766667,75.78037
383.283333,75.78037
383.85,75.770692
384.333333,75.770692
384.833333,75.770692
385.333333,75.751335
385.9,75.751335
386.366667,75.751335
386.9,75.731978
387.45,75.731978
388.033333,75.731978
388.533333,75.731978
389.0,75.751335
389.45,75.731978
389.933333,75.731978
390.4,75.7223
390.916667,75.7223
391.4,75.7223
391.95,75.751335
392.366667,75.751335
392.433333,75.751335
392.933333,75.751335
393.4,75.751335
393.466667,75.751335
394.0,75.7223
394.883333,75.7223
395.366667,75.712622
395.883333,75.702943
396.35,75.702943
396.883333,75.702943
397.383333,75.702943
397.933333,75.702943
398.433333,75.702943
398.9,75.702943
399.366667,75.702943
399.883333,75.693265
400.366667,75.702943
400.833333,75.693265
401.333333,75.693265
401.933333,75.673908
402.466667,75.66423
402.95,75.654551
403.483333,75.635194
404.016667,75.644873
404.5,75.635194
405.0,75.635194
405.416667,75.635194
405.883333,75.625516
406.366667,75.625516
406.833333,75.625516
