time,pressure
0.0,196.205693
2.0,199.585386
3.45,213.894881
19.7,230.309426
21.5,240.282036
23.416667,237.918574
25.883333,223.930401
27.366667,203.779999
29.366667,185.287504
31.466667,170.520221
33.983333,158.507407
35.416667,150.036882
37.466667,140.360431
39.35,133.187778
41.2,127.764978
43.65,122.524131
45.483333,118.124336
47.416667,114.885948
49.85,111.214936
51.783333,107.655225
53.716667,104.940437
54.95,103.009599
57.516667,100.78357
59.783333,98.36978
61.7,96.531854
63.533333,95.458521
65.383333,94.894271
67.833333,94.604887
69.683333,94.802327
72.2,95.457553
73.9,96.60541
75.983333,97.922639
78.016667,99.133405
79.916667,100.006395
81.933333,100.742921
83.766667,101.28975
85.566667,101.629461
88.016667,101.838514
89.75,101.994336
91.666667,102.107573
93.55,102.191775
96.116667,102.315659
97.8,102.557618
100.0,102.912815
101.433333,103.274787
103.45,103.607723
105.6,103.907753
107.616667,104.187459
110.316667,104.385866
111.7,104.497167
113.766667,104.539752
115.866667,104.624922
117.883333,104.760419
119.833333,104.938501
121.816667,105.145619
123.9,105.408871
126.05,105.726322
128.016667,106.038934
130.05,106.373806
132.116667,106.578988
133.516667,106.610927
135.666667,106.400906
138.233333,106.020545
140.033333,105.435971
141.833333,104.630729
144.433333,103.713218
146.116667,102.816999
147.833333,102.190807
149.883333,101.812382
151.933333,101.652689
154.016667,101.619783
155.983333,101.704952
157.983333,101.922716
160.016667,101.710759
162.1,101.088439
163.65,100.334493
165.733333,99.947357
167.9,99.682169
169.833333,99.3773
171.883333,99.16244
186.25,98.987261
188.283333,99.023071
190.35,99.138244
192.35,99.421821
194.35,99.625067
196.266667,99.730561
198.333333,99.827345
199.716667,100.602584
202.366667,101.654625
204.383333,102.513098
206.35,102.701826
208.333333,102.843131
210.716667,102.844098
212.1,102.882812
214.166667,102.957336
216.233333,103.238009
218.25,103.608691
220.366667,103.980341
222.3,104.19133
224.45,104.351023
227.15,104.500071
227.816667,104.738159
230.5,104.976247
231.816667,105.210464
233.983333,105.686641
236.766667,106.275087
238.15,106.994191
240.816667,107.516824
242.233333,108.111077
244.366667,108.535958
246.483333,108.809856
248.566667,108.382072
250.616667,106.819012
251.933333,105.213368
254.583333,104.901724
256.816667,105.254017
258.4,105.947957
260.5,106.489947
262.55,107.536181
264.266667,110.212255
266.9,113.785515
268.9,116.33577
270.9,115.901211
272.316667,116.726777
274.983333,121.531128
276.95,134.350152
