time,pressure
0.0,71.41826
0.268056,71.36019
0.529722,71.292441
0.795,71.244049
1.036667,71.195657
1.3225,71.137586
1.602222,71.089194
1.843333,71.05048
2.101389,71.002088
2.413333,70.963375
2.6625,70.924661
2.9275,70.885947
3.206111,70.847234
3.458611,70.818199
3.694722,70.789163
3.976944,70.760128
4.248889,70.721414
4.530278,70.682701
4.770556,70.663344
5.056667,70.634309
5.344444,70.595595
5.568889,70.576238
5.849167,70.547203
6.155278,70.518168
6.440833,70.498811
6.741944,70.469776
6.996667,70.450419
7.263056,70.411705
7.525,70.392348
7.756944,70.372992
8.015,70.353635
8.270278,70.334278
8.509167,70.3246
8.781944,70.305243
9.076389,70.276207
9.345278,70.256851
9.607778,70.237494
9.883889,70.218137
10.176944,70.19878
10.438611,70.179423
10.705833,70.169745
11.025833,70.14071
11.365278,70.111674
11.645,70.101996
11.953611,70.082639
12.219722,70.072961
12.507222,70.053604
12.792778,70.053604
13.069722,70.043926
13.309167,70.024569
13.583889,70.01489
13.848056,69.995534
14.123611,69.985855
14.435833,69.966498
14.731389,69.95682
15.020833,69.947142
15.253611,69.937463
15.512778,69.927785
15.780833,69.908428
16.075556,69.898749
16.341944,69.898749
16.574444,69.879393
16.875833,69.869714
17.134167,69.850357
17.389722,69.840679
17.658889,69.821322
17.956389,69.811644
18.207778,69.801965
18.481944,69.782609
18.753333,69.77293
19.002778,69.763252
19.291667,69.753573
19.5475,69.743895
20.301389,69.71486
20.393611,69.71486
20.696111,69.705181
21.04,69.685824
21.307778,69.685824
21.591389,69.666468
21.877222,69.656789
22.125278,69.656789
22.388333,69.656789
22.808889,69.656789
22.873611,69.637432
23.149722,69.637432
23.441667,69.627754
23.685278,69.627754
23.8275,69.627754
23.949167,69.618076
24.199444,69.608397
24.4125,69.608397
24.725278,69.58904
24.978611,69.58904
25.263889,69.579362
25.543889,69.569683
25.785,69.560005
26.053611,69.569683
26.286944,69.550327
26.5725,69.550327
26.855833,69.540648
27.103889,69.521291
27.391667,69.511613
27.649444,69.511613
27.918056,69.511613
28.187222,69.501935
28.446944,69.492256
28.685833,69.482578
28.971389,69.482578
29.256111,69.472899
29.483056,69.472899
29.744167,69.463221
29.9975,69.453543
30.238889,69.443864
30.524167,69.443864
30.811111,69.424507
31.109722,69.424507
31.343889,69.414829
31.567778,69.414829
31.805556,69.40515
32.102222,69.395472
32.38,69.395472
32.643611,69.395472
32.974722,69.376115
33.259167,69.376115
33.505,69.376115
33.811111,69.366437
34.064444,69.34708
34.421111,69.337402
34.766667,69.337402
35.150278,69.327723
35.45,69.318045
35.694722,69.318045
36.050556,69.318045
36.294444,69.308366
36.5525,69.298688
36.817778,69.298688
37.174167,69.298688
37.445556,69.28901
37.715278,69.279331
37.9775,69.279331
38.219444,69.269653
38.512222,69.269653
38.750556,69.250296
39.085,69.250296
39.402778,69.240617
39.624167,69.221261
39.992222,69.211582
40.284167,69.211582
40.581667,69.201904
40.852222,69.211582
41.161389,69.192225
41.426944,69.172869
41.7,69.182547
42.054167,69.172869
42.2975,69.172869
42.588611,69.16319
42.852222,69.172869
43.174444,69.153512
43.448056,69.153512
43.730833,69.143833
44.324167,69.143833
44.548333,69.143833
44.819722,69.143833
45.137778,69.134155
45.3775,69.134155
45.652222,69.124477
45.923889,69.124477
46.202778,69.114798
46.461667,69.114798
46.730278,69.114798
47.043889,69.10512
47.292222,69.10512
47.57,69.10512
47.819722,69.10512
48.071389,69.095441
48.341667,69.095441
48.653889,69.095441
48.989167,69.085763
49.294444,69.085763
49.592778,69.085763
49.9,69.085763
50.201111,69.076085
50.504167,69.076085
50.765,69.066406
51.045278,69.076085
51.408611,69.066406
51.722222,69.066406
52.025833,69.056728
52.107222,69.056728
52.294722,69.056728
52.585278,69.056728
52.871111,69.066406
53.132778,69.066406
53.1775,69.056728
53.462778,69.047049
53.746944,69.047049
54.015278,69.037371
54.299722,69.037371
54.566944,69.037371
54.836389,69.027692
55.126667,69.018014
55.396667,69.027692
55.634444,69.027692
55.887222,69.018014
56.148889,69.018014
56.390556,69.008336
56.696389,69.008336
56.959167,69.008336
57.213333,68.998657
57.479167,68.998657
57.757222,68.998657
57.995,68.988979
58.270556,68.988979
58.540833,68.9793
58.801111,68.9793
59.102222,68.969622
59.377778,68.969622
59.632778,68.969622
59.879444,68.969622
60.125,68.959944
60.421944,68.959944
60.661944,68.950265
60.9625,68.950265
61.211111,68.950265
61.500278,68.950265
61.780833,68.950265
62.0575,68.950265
62.36,68.940587
62.615833,68.940587
62.879722,68.92123
63.163889,68.92123
63.421944,68.92123
63.694444,68.911552
63.961944,68.911552
64.229444,68.911552
64.501944,68.901873
64.777222,68.901873
65.021389,68.892195
65.265833,68.892195
65.537778,68.882516
65.778333,68.882516
66.103056,68.882516
66.369722,68.882516
66.616389,68.882516
66.901111,68.872838
67.174444,68.872838
67.438056,68.872838
67.695556,68.872838
68.363889,68.863159
68.543333,68.863159
68.859167,68.863159
69.150278,68.853481
69.398611,68.853481
69.688333,68.853481
69.918611,68.843803
70.215278,68.843803
70.517778,68.843803
70.804722,68.834124
71.105278,68.834124
71.355278,68.834124
71.618333,68.824446
71.881389,68.824446
72.139167,68.814767
72.378889,68.814767
72.650833,68.805089
72.959444,68.814767
73.239167,68.805089
73.543333,68.805089
73.813333,68.805089
74.130278,68.795411
74.376667,68.795411
74.702222,68.785732
75.351389,68.785732
75.616111,68.776054
75.856389,68.776054
76.121667,68.776054
76.413889,68.766375
76.635,68.756697
76.952778,68.756697
77.214722,68.766375
77.447222,68.756697
77.761944,68.756697
78.076111,68.747019
78.340556,68.747019
78.596111,68.747019
78.849444,68.73734
79.112778,68.73734
79.401667,68.727662
79.664722,68.73734
79.966667,68.727662
80.224167,68.727662
80.458611,68.717983
80.716944,68.717983
81.007222,68.708305
81.220556,68.708305
81.4175,68.708305
81.453611,68.708305
81.720278,68.708305
81.987778,68.698626
82.26,68.698626
82.429167,68.698626
82.503611,68.698626
82.791944,68.688948
83.035,68.67927
83.109444,68.67927
83.373056,68.67927
83.666111,68.669591
83.886389,68.67927
84.110556,68.669591
84.366389,68.669591
84.6075,68.659913
84.861944,68.659913
85.126111,68.659913
85.391944,68.659913
85.658333,68.650234
85.948889,68.650234
86.182778,68.640556
86.469167,68.640556
86.712778,68.640556
87.016111,68.621199
87.260833,68.621199
87.504167,68.621199
87.804167,68.621199
88.059444,68.621199
88.336111,68.601842
88.618333,68.611521
88.861111,68.611521
89.1475,68.611521
89.413889,68.611521
89.677778,68.621199
90.196944,68.611521
90.463889,68.611521
90.763056,68.601842
91.031111,68.601842
91.293889,68.601842
91.582222,68.611521
91.856389,68.601842
92.464167,68.592164
92.779167,68.592164
93.081111,68.592164
93.329722,68.592164
93.583333,68.582486
93.868333,68.582486
94.125,68.582486
94.366667,68.572807
94.646111,68.563129
94.920833,68.572807
95.216111,68.563129
95.523611,68.55345
95.786944,68.55345
96.073333,68.55345
96.308333,68.543772
96.560833,68.543772
96.838889,68.543772
97.149444,68.543772
97.404722,68.543772
97.671389,68.543772
97.932778,68.543772
98.186389,68.543772
98.433889,68.543772
98.723611,68.543772
98.973611,68.534093
99.233333,68.534093
99.52,68.534093
99.7675,68.534093
100.055556,68.534093
100.320556,68.534093
100.588889,68.534093
100.853889,68.534093
101.095556,68.534093
101.363333,68.524415
101.632222,68.524415
101.881111,68.514737
102.141944,68.514737
102.396667,68.524415
102.645833,68.524415
102.887778,68.514737
103.187778,68.524415
103.449444,68.514737
103.685,68.514737
104.010833,68.514737
104.321944,68.514737
104.595278,68.505058
104.842778,68.514737
105.11,68.514737
105.395278,68.514737
105.641389,68.514737
105.875278,68.514737
106.225556,68.505058
106.548333,68.505058
106.855,68.505058
107.204722,68.505058
107.512222,68.505058
107.841111,68.505058
108.142778,68.505058
108.401111,68.49538
108.678889,68.49538
108.983333,68.49538
109.226111,68.49538
109.528333,68.485701
109.803333,68.485701
110.049167,68.476023
110.304444,68.485701
110.573611,68.485701
110.812222,68.485701
110.845833,68.476023
111.123056,68.476023
111.363889,68.476023
111.639444,68.476023
111.813056,68.476023
111.947778,68.49538
112.241944,68.476023
112.808333,68.476023
113.145278,68.466345
113.465,68.466345
113.784444,68.466345
114.097778,68.466345
114.423333,68.466345
114.746944,68.466345
115.122222,68.466345
115.405833,68.466345
115.700556,68.466345
116.510278,68.456666
116.661667,68.456666
117.005556,68.456666
117.304167,68.456666
117.58,68.446988
117.865,68.456666
118.165556,68.446988
118.521667,68.446988
118.961389,68.437309
119.243333,68.446988
119.538056,68.446988
119.854167,68.446988
120.151944,68.437309
120.434444,68.437309
120.736389,68.446988
121.064167,68.446988
121.349444,68.437309
121.661111,68.437309
121.9725,68.446988
122.287222,68.437309
122.588056,68.446988
122.966389,68.437309
123.283333,68.437309
123.596389,68.437309
123.947222,68.446988
124.296667,68.446988
124.588611,68.437309
124.880833,68.437309
125.2,68.437309
125.529167,68.437309
125.838889,68.427631
126.148889,68.427631
126.455,68.427631
126.766944,68.427631
127.050833,68.427631
127.344444,68.427631
127.633611,68.427631
127.969444,68.417953
128.26,68.417953
128.594167,68.417953
128.860833,68.417953
129.163056,68.417953
129.471111,68.408274
129.768611,68.408274
130.069167,68.408274
130.371111,68.408274
130.645833,68.408274
130.975556,68.398596
131.285556,68.398596
131.598056,68.388917
131.912222,68.398596
132.217778,68.388917
132.537778,68.388917
132.858056,68.388917
133.161111,68.388917
133.415833,68.379239
133.719722,68.388917
134.015833,68.379239
134.295833,68.369561
134.59,68.369561
134.853056,68.369561
135.160833,68.369561
135.465556,68.359882
135.746667,68.350204
136.064444,68.350204
136.369722,68.350204
136.644444,68.340525
136.913056,68.350204
137.1975,68.340525
137.517778,68.330847
137.801389,68.330847
138.103333,68.330847
138.424167,68.31149
138.757778,68.31149
139.0825,68.31149
139.384722,68.31149
139.660278,68.31149
140.468056,68.31149
140.5675,68.301812
140.669167,68.301812
140.979444,68.301812
141.255,68.301812
141.469722,68.301812
141.542778,68.301812
141.836667,68.301812
142.126944,68.292133
142.400278,68.292133
142.714167,68.292133
143.02,68.282455
143.298333,68.282455
143.551389,68.272776
143.859722,68.282455
144.176667,68.272776
144.489722,68.272776
144.759167,68.272776
145.055833,68.272776
145.351111,68.272776
145.619722,68.263098
145.875556,68.263098
146.171944,68.272776
146.430833,68.272776
146.701667,68.263098
146.995556,68.272776
147.284444,68.272776
147.562222,68.263098
147.8375,68.272776
148.121667,68.272776
148.437222,68.263098
148.718056,68.263098
149.048889,68.263098
149.355833,68.263098
149.655278,68.263098
149.958333,68.263098
150.242222,68.25342
150.519167,68.25342
150.835556,68.25342
151.133056,68.25342
151.425833,68.243741
151.705833,68.25342
151.980556,68.25342
152.287778,68.25342
152.589444,68.25342
152.901944,68.25342
153.18,68.243741
153.4825,68.243741
153.783611,68.243741
154.073056,68.243741
154.3625,68.234063
154.634722,68.224384
154.9025,68.224384
155.307222,68.224384
155.642778,68.224384
155.896667,68.224384
156.181111,68.224384
156.461667,68.224384
156.761944,68.224384
157.1425,68.224384
157.428889,68.224384
157.695833,68.234063
158.000278,68.224384
158.642222,68.224384
158.946389,68.224384
159.240278,68.234063
159.519722,68.224384
159.781667,68.234063
160.08,68.224384
160.363056,68.224384
160.6475,68.214706
160.9475,68.224384
161.234722,68.224384
161.508333,68.224384
161.822222,68.224384
162.118056,68.224384
162.418611,68.214706
162.729167,68.214706
163.037778,68.214706
163.303333,68.224384
163.554167,68.214706
163.830556,68.214706
164.568611,68.205028
164.698611,68.205028
165.006944,68.205028
165.300556,68.205028
165.548056,68.195349
165.811111,68.195349
166.146944,68.195349
166.416667,68.195349
166.681111,68.195349
166.951667,68.195349
167.24,68.195349
167.552222,68.195349
167.846944,68.185671
168.2,68.185671
168.511111,68.195349
168.850556,68.195349
169.175,68.185671
169.506389,68.195349
169.813333,68.195349
169.940556,68.195349
170.450278,68.195349
170.737222,68.195349
170.951111,68.195349
171.002222,68.195349
171.302222,68.195349
171.628333,68.185671
171.9025,68.175992
172.195556,68.185671
172.491389,68.175992
172.739722,68.166314
173.048333,68.175992
173.355833,68.175992
173.6625,68.175992
173.948611,68.175992
174.196111,68.175992
174.477222,68.166314
174.761389,68.166314
175.115556,68.166314
175.425833,68.166314
175.755,68.166314
176.023056,68.166314
176.285833,68.166314
176.545833,68.156635
176.799722,68.166314
177.097778,68.156635
177.387222,68.156635
177.669444,68.156635
178.003056,68.156635
178.278333,68.156635
178.530278,68.156635
178.8025,68.146957
179.096389,68.146957
179.418611,68.146957
179.701111,68.146957
180.066111,68.146957
180.3375,68.137279
180.674167,68.137279
181.050556,68.137279
181.382778,68.146957
181.661111,68.137279
181.993333,68.137279
182.305556,68.1276
182.608056,68.1276
182.862222,68.1276
183.219167,68.1276
183.506667,68.1276
183.840833,68.1276
184.197778,68.1276
184.503611,68.1276
184.815278,68.1276
185.437222,68.117922
185.745,68.117922
186.049444,68.108243
186.355556,68.098565
186.616944,68.108243
186.904444,68.108243
187.236389,68.098565
187.556389,68.098565
187.845278,68.098565
188.7175,68.098565
188.878611,68.088887
189.187222,68.088887
189.487222,68.079208
189.804722,68.079208
190.125833,68.079208
190.431389,68.06953
190.771667,68.059851
191.0875,68.050173
191.45,68.050173
191.700556,68.040495
192.051667,68.050173
192.35,68.050173
192.652222,68.040495
192.933333,68.040495
193.269167,68.040495
193.564722,68.040495
193.863056,68.040495
194.15,68.040495
194.476111,68.030816
194.7725,68.030816
195.103056,68.040495
195.405278,68.030816
195.701944,68.030816
196.038611,68.030816
196.333889,68.030816
196.618056,68.030816
196.880278,68.030816
197.188056,68.030816
197.488056,68.011459
197.796111,68.011459
198.098056,68.011459
198.395278,68.011459
198.671944,68.011459
198.983889,68.001781
199.280556,68.001781
199.613611,68.011459
199.91,68.011459
200.230556,68.001781
200.525556,68.001781
200.795,68.001781
201.052778,68.001781
201.311667,68.001781
201.576389,68.001781
201.829444,68.001781
202.143056,67.992102
202.467222,67.992102
202.726667,67.992102
202.993611,67.982424
203.249167,67.992102
203.528333,67.992102
203.803889,67.982424
204.364167,67.982424
207.658056,67.875962
207.900556,67.875962
208.229444,67.875962
208.557778,67.875962
208.880556,67.88564
209.202222,67.88564
209.483611,67.88564
209.731389,67.875962
209.765,67.88564
209.875556,67.88564
210.201667,67.88564
210.516944,67.875962
210.846111,67.875962
211.196667,67.875962
211.530556,67.866283
211.893056,67.866283
212.775833,67.856605
213.45,67.846926
213.789167,67.856605
214.188056,67.846926
214.617222,67.846926
215.018333,67.846926
215.347222,67.837248
215.722778,67.846926
216.187222,67.846926
216.630556,67.846926
217.014722,67.837248
217.402222,67.837248
217.833056,67.837248
218.2,67.846926
218.595278,67.846926
219.061111,67.837248
219.466111,67.846926
219.841944,67.837248
220.246667,67.837248
220.635556,67.837248
221.024722,67.837248
221.396667,67.837248
221.832778,67.837248
222.234722,67.827569
222.601667,67.837248
222.973333,67.827569
223.318333,67.827569
223.715556,67.827569
224.111944,67.827569
224.536667,67.827569
224.9,67.817891
225.256944,67.827569
225.632778,67.817891
225.998889,67.817891
226.395278,67.817891
226.765556,67.817891
227.119444,67.808213
227.499167,67.808213
227.889444,67.798534
228.235278,67.808213
228.600278,67.798534
229.018889,67.798534
229.400278,67.798534
229.8125,67.798534
230.210833,67.798534
230.599167,67.788856
231.015556,67.798534
231.365,67.788856
231.706111,67.788856
232.061944,67.788856
232.502778,67.788856
232.8725,67.788856
233.271111,67.779177
233.643333,67.779177
233.985278,67.779177
234.387222,67.769499
235.215556,67.769499
235.565556,67.769499
235.891944,67.759821
236.745556,67.750142
236.866389,67.750142
237.234722,67.750142
237.544444,67.740464
237.724722,67.740464
237.905556,67.740464
238.267222,67.740464
238.625556,67.740464
238.739444,67.740464
239.074444,67.730785
239.404167,67.740464
239.714722,67.730785
240.096944,67.730785
240.419722,67.730785
240.769722,67.711429
241.1,67.711429
241.459167,67.711429
241.803889,67.711429
242.128056,67.711429
242.465278,67.70175
242.785556,67.70175
243.119167,67.70175
243.452222,67.692072
243.763056,67.692072
244.118611,67.682393
244.460278,67.682393
244.806111,67.682393
245.115833,67.682393
245.494722,67.682393
245.847778,67.682393
246.203889,67.682393
246.538056,67.682393
246.899722,67.672715
247.274722,67.682393
247.6075,67.682393
247.926944,67.682393
248.275833,67.672715
248.611944,67.672715
248.959167,67.672715
249.3125,67.672715
249.659444,67.672715
250.002778,67.672715
250.355,67.663036
250.727778,67.663036
251.110556,67.663036
251.477222,67.663036
251.798889,67.663036
252.150833,67.663036
252.800556,67.653358
253.141944,67.653358
253.468056,67.634001
253.780556,67.64368
254.16,67.634001
254.503611,67.634001
254.854722,67.634001
255.251389,67.634001
255.626111,67.634001
255.977778,67.634001
256.341111,67.634001
256.695278,67.634001
257.063333,67.634001
257.46,67.634001
257.836111,67.634001
258.260833,67.634001
258.643611,67.634001
259.038056,67.634001
259.429444,67.634001
259.7975,67.624323
260.161111,67.634001
260.7175,67.634001
261.183889,67.624323
261.568889,67.624323
262.012222,67.624323
262.339444,67.614644
262.7,67.614644
263.109444,67.614644
263.472778,67.604966
263.838056,67.604966
264.245556,67.604966
264.604722,67.604966
264.975833,67.595288
265.328333,67.604966
265.7075,67.604966
266.090833,67.595288
266.510833,67.595288
266.878056,67.595288
267.026111,67.595288
267.258056,67.585609
267.576389,67.595288
267.711111,67.585609
267.915278,67.575931
267.9875,67.585609
268.319444,67.595288
268.678611,67.575931
269.058889,67.585609
269.386389,67.575931
269.738889,67.575931
270.094444,67.566252
270.476667,67.575931
270.850556,67.566252
271.196944,67.566252
271.507222,67.556574
271.844722,67.556574
272.188333,67.566252
272.503889,67.556574
272.8675,67.556574
273.226667,67.556574
273.629167,67.546896
274.0575,67.546896
274.335,67.546896
274.486944,67.546896
274.503333,67.546896
275.282778,67.556574
275.595556,67.546896
276.254167,67.546896
276.6725,67.537217
277.056944,67.537217
277.480833,67.527539
278.248889,67.537217
278.613333,67.537217
279.179167,67.527539
279.574167,67.51786
280.048889,67.51786
280.544444,67.51786
281.040833,67.508182
281.481389,67.498504
281.926944,67.498504
282.406389,67.498504
282.843611,67.488825
283.238056,67.488825
283.331944,67.498504
283.760556,67.488825
284.280278,67.479147
285.020833,67.479147
285.456389,67.479147
285.894722,67.488825
286.352222,67.479147
286.794167,67.479147
287.216389,67.479147
287.690833,67.479147
288.191667,67.479147
288.370278,67.479147
288.622222,67.469468
289.151389,67.479147
289.406111,67.479147
289.708889,67.479147
290.164167,67.469468
290.612222,67.469468
291.126111,67.479147
291.623333,67.479147
292.097222,67.479147
292.554722,67.479147
293.069722,67.479147
293.538889,67.479147
294.076944,67.479147
294.441389,67.479147
294.8875,67.469468
295.358889,67.469468
295.830556,67.469468
296.279444,67.469468
296.739444,67.479147
297.144722,67.469468
298.616111,67.469468
299.107222,67.45979
299.540833,67.450111
299.996944,67.45979
300.420833,67.45979
300.841111,67.469468
301.362222,67.45979
301.804722,67.45979
302.236667,67.45979
302.7,67.45979
303.2125,67.450111
303.731111,67.45979
304.226944,67.450111
304.659167,67.450111
305.1175,67.450111
305.600278,67.450111
306.066944,67.45979
306.541667,67.45979
307.047222,67.450111
307.508889,67.450111
308.001111,67.45979
308.435556,67.450111
308.928889,67.45979
309.4175,67.450111
309.883056,67.450111
310.333611,67.450111
311.313611,67.450111
311.789722,67.450111
312.309444,67.450111
312.739722,67.450111
312.893056,67.450111
313.230556,67.440433
313.721111,67.440433
314.207222,67.440433
314.633611,67.440433
315.107222,67.440433
315.613611,67.440433
316.126389,67.430755
316.585556,67.440433
317.138056,67.440433
317.646667,67.440433
