time,pressure
0.0,369.08502
0.25,362.084642
0.5,354.984577
0.75,345.084555
1.0,337.0844
1.5,327.484408
2.0,313.285246
3.0,283.084807
4.0,260.085087
5.0,242.085223
6.0,221.085058
7.0,201.185326
8.0,187.084884
9.0,170.384827
10.0,157.084787
11.0,145.985613
12.0,135.085813
13.0,124.085358
14.0,113.085871
15.0,101.785386
16.0,91.185617
17.0,81.085252
17.833333,69.38505
18.833333,57.185443
19.633333,55.885635
19.75,55.985323
19.916667,54.785202
20.25,52.98599
20.5,54.685515
20.75,56.585383
21.0,57.88519
21.25,59.185965
21.666667,61.78558
22.166667,58.18522
22.666667,61.585237
23.333333,55.785948
23.666667,57.88519
24.333333,51.685215
24.666667,53.985768
25.283333,47.88548
26.25,53.685738
26.666667,48.885258
27.333333,52.785648
27.666667,48.78557
28.333333,52.785648
28.666667,48.585228
29.383333,52.885335
29.666667,49.785348
30.416667,54.585828
30.666667,51.48584
31.416667,55.885635
31.666667,52.98599
32.416667,57.385785
32.666667,54.485172
33.416667,58.685593
33.666667,55.685293
34.216667,58.78528
34.466667,59.786025
34.5,59.885713
34.75,57.28513
35.5,61.18552
35.75,58.585905
36.8,60.485773
37.05,61.385863
37.083333,61.685893
37.366667,60.88549
37.633333,62.285953
37.8,61.285207
39.5,69.085987
39.916667,63.085387
41.0,68.385272
41.25,65.585315
42.0,68.585615
42.25,65.785657
43.166667,70.185452
43.316667,67.985555
48.55,72.38535
49.25,68.085242
50.25,70.085765
51.166667,67.985555
52.183333,70.8852
53.0,67.985555
54.0,70.785512
54.083333,69.885422
54.25,71.18523
54.5,71.885945
54.666667,68.885645
55.5,71.18523
55.666667,68.485927
56.533333,71.48526
56.666667,68.885645
57.533333,71.48526
57.666667,69.085987
58.533333,71.885945
58.666667,69.485705
59.533333,72.285662
59.666667,69.885422
60.533333,72.485037
60.666667,69.98511
61.533333,73.085097
61.666667,70.58517
62.533333,73.185752
62.666667,70.785512
63.533333,73.385127
63.666667,70.985855
64.533333,73.58547
64.683333,70.785512
65.533333,73.28544
65.683333,70.485482
66.533333,73.185752
66.683333,70.485482
67.533333,72.885722
67.683333,70.185452
71.533333,72.185975
71.683333,69.285362
77.2,72.485037
77.35,69.68508
78.2,72.585692
78.333333,70.185452
79.2,72.485037
79.333333,70.085765
80.2,72.485037
80.333333,70.085765
83.2,73.385127
83.333333,70.8852
84.2,72.885722
84.333333,70.385795
85.2,72.885722
85.333333,70.385795
86.2,72.98541
86.333333,70.58517
88.2,72.885722
88.333333,70.485482
90.2,72.785067
90.333333,70.28514
95.3,70.485482
95.933333,71.385572
97.266667,70.985855
97.916667,71.48526
99.216667,72.08532
100.1,72.38535
104.3,70.985855
104.933333,72.38535
108.233333,72.785067
108.85,70.785512
110.1,72.98541
111.4,70.685825
112.55,72.785067
112.7,70.385795
113.516667,72.38535
113.666667,70.8852
114.516667,72.08532
114.666667,71.585915
115.516667,72.885722
116.366667,71.685602
116.866667,73.485782
117.533333,72.38535
118.85,72.885722
119.5,71.985632
120.833333,72.285662
121.466667,71.48526
122.116667,72.98541
122.333333,71.48526
124.05,73.385127
124.65,72.185975
125.316667,73.685157
127.083333,72.885722
129.083333,70.985855
133.066667,73.28544
133.75,72.68538
136.116667,73.185752
139.333333,73.085097
139.45,72.68538
141.3,72.68538
141.983333,71.48526
143.3,72.68538
143.933333,70.985855
145.083333,72.68538
147.083333,72.485037
149.083333,72.08532
150.333333,72.185975
151.0,71.885945
152.333333,71.48526
153.0,71.48526
154.366667,70.685825
155.033333,72.08532
156.35,70.985855
156.983333,72.08532
158.316667,72.08532
158.95,72.285662
160.283333,72.98541
160.933333,72.08532
164.2,72.785067
166.216667,72.68538
168.083333,72.585692
170.25,72.785067
172.916667,72.285662
174.35,71.285885
175.033333,72.485037
176.366667,70.685825
179.083333,72.68538
181.083333,72.585692
182.3,71.18523
182.933333,71.085542
186.333333,71.685602
186.983333,71.685602
660.083333,356.798307
660.333333,353.297634
660.583333,350.298302
660.833333,347.598032
661.083333,344.698387
661.583333,338.198383
662.083333,332.698155
663.083333,321.297983
664.083333,311.298273
667.5,279.298622
668.583333,270.098347
671.083333,244.798075
673.083333,235.798143
674.75,224.898343
674.916667,224.598313
677.083333,211.097931
680.166667,193.398096
683.833333,174.298767
684.416667,170.698407
687.583333,156.898962
689.05,151.89814
690.333333,147.098627
692.333333,140.39828
694.166667,134.098618
696.583333,125.998775
698.583333,119.798801
700.583333,114.098231
701.75,110.498838
703.083333,106.798791
704.416667,103.098744
707.083333,95.898991
708.25,92.098289
710.083333,86.698716
711.416667,82.199234
713.583333,78.499187
714.05,80.999114
715.866667,88.198866
716.5,86.298999
718.416667,80.298399
720.25,74.598797
721.0,72.098869
722.25,68.398822
724.583333,60.89904
725.25,58.898517
727.916667,51.299047
728.25,50.498645
731.083333,64.299057
733.083333,69.199225
734.083333,65.298835
735.083333,62.09916
736.083333,59.198547
737.083333,56.199215
738.083333,53.99835
739.083333,53.198915
739.7,51.599077
743.416667,68.098792
744.083333,66.998359
745.083333,63.698997
746.083333,60.398667
747.083333,58.999172
747.333333,59.798607
747.75,59.69892
749.083333,63.498654
749.333333,62.898594
749.416667,62.898594
750.416667,64.899117
751.083333,67.898449
751.933333,67.598419
752.516667,69.499255
752.933333,68.498509
753.433333,70.298689
753.933333,68.998882
754.35,70.499032
754.933333,68.798539
755.35,70.298689
755.933333,68.599165
756.25,69.898972
756.916667,67.898449
757.25,69.199225
757.916667,67.198702
758.25,68.398822
758.916667,66.498955
759.25,67.699075
759.916667,66.298612
760.366667,67.898449
760.916667,66.598642
761.416667,68.299135
761.916667,66.698329
762.416667,68.398822
762.916667,66.998359
763.7,67.898449
764.316667,67.898449
765.616667,67.898449
766.266667,68.098792
766.916667,66.998359
770.1,70.398377
770.75,70.698407
771.383333,71.298467
773.816667,71.099092
775.15,72.299212
775.783333,72.299212
776.433333,73.298989
777.716667,72.798617
778.366667,73.298989
779.666667,73.398677
780.3,73.698707
781.566667,74.598797
782.216667,74.598797
782.85,73.899049
784.166667,74.499109
784.816667,74.398454
786.133333,74.898827
786.8,74.698484
788.116667,75.598574
788.783333,74.998514
790.116667,75.399199
790.8,75.198857
793.183333,75.798917
793.9,75.298544
795.266667,75.898604
795.9,75.099169
797.016667,75.298544
797.666667,75.699229
798.333333,75.998292
799.65,75.898604
800.3,75.699229
801.6,75.798917
802.283333,75.598574
803.616667,75.699229
804.3,75.798917
805.65,76.498664
806.25,76.699007
807.616667,76.898382
808.266667,76.598352
808.9,75.699229
810.2,76.398977
810.816667,75.998292
812.133333,76.598352
812.783333,76.498664
814.116667,76.098947
815.75,75.898604
819.2,74.998514
819.85,74.398454
821.133333,74.398454
821.75,74.398454
822.416667,74.898827
823.75,74.098424
824.4,73.398677
825.666667,72.098869
826.333333,71.898527
827.65,71.798839
828.316667,72.299212
829.633333,73.398677
830.266667,73.599019
830.9,73.198334
832.25,74.298767
832.883333,74.199079
834.183333,75.298544
834.883333,75.399199
836.183333,77.498442
854.083333,98.998979
878.083333,97.798859
902.083333,75.298544
926.083333,75.898604
950.083333,74.499109
974.083333,75.998292
998.083333,76.098947
1022.083333,80.498742
1046.083333,74.598797
1070.083333,73.198334
1094.083333,71.798839
1118.083333,75.498887
1142.083333,77.899127
1166.083333,76.398977
1190.083333,75.099169
1214.083333,75.598574
1238.083333,72.498587
1262.083333,71.798839
1286.083333,77.299067
1310.083333,84.999192
1334.083333,83.998446
1358.083333,85.198566
1382.083333,84.798849
1406.083333,84.498819
1430.083333,76.398977
1454.083333,70.598719
1478.083333,74.298767
1502.083333,77.998814
1526.083333,53.399257
1598.083333,40.399248
1622.083333,97.898546
1646.083333,130.39857
1670.083333,155.698842
1694.083333,176.398009
1718.083333,192.598661
1742.083333,206.998166
1766.083333,219.398115
1790.083333,230.297915
1814.083333,239.398503
1838.083333,246.298225
1862.083333,251.697797
1886.083333,259.697952
1910.083333,264.298089
1934.083333,268.997914
1958.083333,273.997769
1982.083333,277.598129
2006.083333,268.198479
2030.083333,259.097892
2342.083333,101.698281
2366.083333,83.698416
2390.083333,91.898914
2414.083333,78.398532
2438.083333,74.698484
2462.083333,74.698484
2486.083333,73.098647
2510.083333,72.398899
2534.083333,72.098869
2558.083333,71.798839
2582.083333,72.198557
2606.083333,72.299212
2630.083333,65.698552
2654.083333,66.099237
2678.083333,65.998582
2702.083333,66.099237
2726.083333,67.898449
2750.083333,75.099169
2774.083333,66.399267
2798.083333,65.898895
2822.083333,65.799207
2846.083333,68.198479
2870.083333,69.998659
2894.083333,66.498955
2918.083333,65.898895
2942.083333,68.198479
2966.083333,67.099015
3038.083333,66.099237
3062.083333,66.198925
3086.083333,66.198925
3110.083333,66.099237
3134.083333,65.898895
3158.083333,65.898895
3182.083333,65.898895
3206.083333,65.799207
3230.083333,67.699075
3254.083333,66.298612
3278.083333,67.198702
3302.083333,69.598942
3326.083333,66.798985
3350.083333,66.498955
3374.083333,68.998882
3398.083333,66.898672
3422.083333,68.198479
3446.083333,67.598419
3470.083333,81.299144
3494.083333,77.398754
3518.083333,67.498732
3542.083333,69.398599
3566.083333,69.199225
3590.083333,68.498509
3614.083333,67.898449
3638.083333,68.398822
3662.083333,68.798539
3686.083333,60.998727
3710.083333,48.898807
3734.083333,60.59901
3758.083333,65.598865
3782.083333,65.799207
3806.083333,65.598865
3830.083333,64.998805
3854.083333,66.099237
3878.083333,66.399267
3902.083333,66.298612
3926.083333,66.399267
3950.083333,66.298612
3974.083333,66.598642
3998.083333,64.098714
4022.083333,66.698329
4046.083333,67.498732
4070.083333,66.698329
4094.083333,68.098792
4118.083333,67.798762
4142.083333,65.799207
4166.083333,65.098492
4190.083333,66.198925
4214.083333,63.29928
4238.083333,65.199147
4262.083333,66.099237
4286.083333,65.398522
4310.083333,65.098492
4334.083333,64.899117
4358.083333,65.398522
4382.083333,64.798462
4406.083333,66.598642
4430.083333,67.699075
4454.083333,66.998359
4478.083333,68.098792
4502.083333,67.598419
4526.083333,67.598419
4550.083333,65.799207
4574.083333,63.198624
4598.083333,64.198402
4622.083333,65.998582
4646.083333,63.898372
4670.083333,62.39919
4694.083333,63.098937
4718.083333,65.898895
4742.083333,66.598642
4766.083333,66.998359
4790.083333,66.598642
4814.083333,66.998359
4838.083333,66.298612
4862.083333,65.998582
4886.083333,64.899117
4910.083333,64.498432
4934.083333,62.598564
4958.083333,62.39919
4982.083333,62.198847
5006.083333,61.298757
5030.083333,61.4991
5054.083333,62.198847
5078.083333,62.498877
5102.083333,64.198402
5126.083333,65.298835
5150.083333,64.698775
5174.083333,65.998582
5198.083333,66.198925
5222.083333,66.099237
5246.083333,66.198925
5270.083333,66.399267
5294.083333,66.898672
5318.083333,66.198925
5342.083333,64.998805
5366.083333,64.998805
5390.083333,66.598642
5414.083333,67.898449
5438.083333,66.898672
5462.083333,66.099237
5486.083333,65.799207
5510.083333,66.198925
5534.083333,65.898895
5558.083333,65.398522
5582.083333,66.298612
5606.083333,66.198925
5630.083333,65.998582
5654.083333,66.298612
5678.083333,66.399267
5702.083333,66.399267
5726.083333,66.399267
5750.083333,47.599
5798.083333,42.398803
5822.083333,68.498509
5846.083333,17.398561
5870.083333,17.398561
5894.083333,17.398561
5918.083333,17.398561
5942.083333,17.398561
5966.083333,17.398561
5990.083333,17.398561
6014.083333,17.398561
6038.083333,17.398561
6062.083333,17.398561
6086.083333,17.398561
6110.083333,17.398561
6134.083333,17.398561
6158.083333,17.398561
6182.083333,17.398561
6206.083333,17.398561
6230.083333,17.398561
6254.083333,17.398561
6278.083333,17.398561
6302.083333,17.398561
6326.083333,17.398561
6350.083333,192.898691
6391.083333,317.473084
6391.333333,315.472562
6391.583333,314.073067
6391.833333,312.772292
6392.083333,311.772514
6392.583333,309.472929
6393.083333,308.872869
6393.483333,308.173122
6393.716667,311.472484
6393.833333,311.472484
6394.75,307.472407
6395.5,306.472629
6396.083333,311.472484
6397.083333,306.572317
6398.083333,305.373165
6398.25,305.172822
6400.166667,311.573139
6402.166667,312.272887
6404.166667,312.672604
6406.25,312.872947
6409.083333,313.072322
6409.75,313.172977
6411.583333,313.272664
6413.083333,313.372352
6416.083333,313.473007
6420.583333,305.073135
6423.083333,304.272732
6425.083333,303.772359
6428.083333,303.372642
6431.583333,302.972924
6433.666667,302.772582
6435.75,302.672894
6437.75,302.573207
6439.333333,302.372864
6441.583333,302.273177
6443.25,302.273177
6446.833333,302.172522
6450.583333,301.973147
6451.916667,301.973147
6455.083333,301.973147
6458.083333,301.973147
6460.25,301.973147
6461.583333,301.973147
6464.583333,301.973147
6467.083333,301.973147
6469.916667,301.872492
6473.083333,301.772804
6474.833333,301.772804
6476.25,301.872492
6478.25,301.872492
6480.416667,301.772804
6482.083333,301.772804
6484.583333,301.772804
6486.75,301.673117
6487.833333,301.572462
6488.833333,301.673117
6489.833333,301.673117
6490.833333,301.673117
6491.833333,301.572462
6492.833333,301.472774
6493.833333,301.472774
6494.833333,301.472774
6495.833333,301.472774
6498.083333,301.373087
6500.083333,301.272432
6502.75,301.272432
6506.166667,301.172744
6508.416667,301.073057
6512.416667,301.172744
6515.3,301.272432
6516.683333,301.272432
6518.116667,301.272432
6520.25,301.172744
6522.25,301.272432
6524.25,301.172744
6526.416667,301.172744
6529.25,301.272432
6530.75,301.172744
6532.083333,301.272432
6538.083333,301.272432
6540.833333,301.073057
6543.416667,300.972402
6544.75,300.972402
6548.25,300.872714
6551.083333,300.872714
6552.5,300.872714
6554.583333,300.872714
6555.083333,300.872714
6556.583333,301.073057
6558.583333,301.073057
6560.083333,301.073057
6561.583333,301.073057
6566.333333,301.073057
6568.583333,301.073057
6571.25,301.073057
6572.083333,301.073057
6575.083333,300.972402
6578.083333,300.972402
6581.083333,300.972402
6584.083333,300.972402
6587.333333,300.972402
6589.416667,301.073057
6593.0,300.972402
6594.416667,300.972402
6596.166667,300.972402
6599.083333,300.972402
6614.083333,301.373087
6638.083333,301.172744
6662.083333,301.073057
6686.083333,301.073057
6710.083333,300.972402
6734.083333,300.972402
6758.083333,300.773027
6782.083333,300.672372
6806.083333,300.572684
6830.083333,300.472997
6854.083333,300.272654
6878.083333,300.072312
6902.083333,299.972624
6926.083333,299.772282
6950.083333,299.772282
6974.083333,299.47322
6998.083333,299.47322
7022.083333,299.47322
7046.083333,299.372564
7070.083333,299.272877
7094.083333,299.072534
7118.083333,299.072534
7142.083333,298.972847
7166.083333,298.772504
7190.083333,298.672817
7214.083333,298.57313
7238.083333,298.57313
7262.083333,298.472474
7286.083333,298.372787
7310.083333,298.372787
7334.083333,298.2731
7358.083333,298.172444
7382.083333,298.2731
7406.083333,298.472474
7430.083333,299.17319
7454.083333,299.272877
7478.083333,299.272877
7502.083333,299.372564
7526.083333,300.272654
7550.083333,301.172744
7574.083333,301.172744
7598.083333,301.272432
7622.083333,301.272432
7646.083333,301.172744
7670.083333,300.972402
7694.083333,301.272432
7718.083333,300.472997
7742.083333,300.372342
7766.083333,300.472997
7790.083333,300.773027
7814.083333,301.373087
7838.083333,262.772775
7862.083333,282.972537
7886.083333,301.272432
7910.083333,301.272432
7934.083333,301.373087
7958.083333,301.272432
7982.083333,301.172744
8006.083333,301.172744
8030.083333,299.47322
8054.083333,297.872414
8078.083333,297.472697
8102.083333,297.07298
8126.083333,297.272354
8150.083333,297.172667
8174.083333,296.872637
8198.083333,297.07298
8222.083333,296.972324
8246.083333,296.972324
8270.083333,297.172667
8294.083333,296.972324
8318.083333,297.37301
8342.083333,297.272354
8366.083333,297.37301
8390.083333,297.272354
8414.083333,297.172667
8438.083333,297.772727
8462.083333,297.872414
8486.083333,297.572384
8510.083333,297.97307
8534.083333,298.2731
8558.083333,298.57313
8582.083333,298.372787
8606.083333,298.472474
8630.083333,298.372787
8654.083333,298.2731
8678.083333,298.372787
8702.083333,299.47322
9873.083333,357.572578
9873.333333,350.872231
9873.583333,346.472436
9873.833333,340.872521
9874.083333,336.872443
9874.583333,325.772301
9875.083333,311.273109
9876.083333,294.172367
9877.083333,278.3724
9878.083333,258.172638
9879.083333,246.173374
9880.25,229.573004
9882.166667,208.972557
9882.333333,208.872869
9884.333333,189.17348
9887.083333,168.273003
9888.083333,159.473413
9889.083333,157.273516
9890.083333,149.472736
9891.083333,145.973031
9892.083333,140.073086
9893.083333,133.373707
9895.083333,124.073744
9897.083333,114.773782
9900.666667,98.073725
9902.5,88.973137
9903.25,84.273313
9905.083333,74.07326
9908.583333,53.073096
9910.416667,58.773666
9911.583333,59.073696
9911.833333,61.273593
9912.333333,57.173828
9912.833333,55.073618
9913.333333,54.173528
9913.833333,53.173751
9914.333333,52.473036
9915.333333,50.973854
9915.833333,50.173451
9916.333333,49.373048
9916.833333,47.773211
9917.333333,46.373716
9917.833333,44.873566
9918.333333,43.573759
9918.75,42.773356
9919.0,45.073909
9919.25,46.873121
9919.5,48.873644
9919.75,50.873198
9919.916667,51.873944
9920.583333,46.373716
9920.916667,49.173674
9921.583333,45.673969
9922.0,48.873644
9922.583333,45.673969
9923.0,48.873644
9923.583333,45.873344
9924.0,49.373048
9924.583333,46.573091
9924.966667,46.973776
9925.583333,46.373716
9927.166667,49.673078
9928.916667,46.773434
9929.583333,49.673078
9930.966667,47.873866
9931.583333,46.673746
9932.583333,48.073241
9932.916667,47.573836
9934.416667,45.873344
9934.783333,45.273284
9936.25,45.873344
9936.966667,45.973031
9938.433333,43.773134
9938.733333,43.973476
9940.75,55.873053
9941.55,54.473558
9942.25,50.673824
9942.633333,53.773811
9942.75,52.573691
9943.283333,49.473704
9943.666667,52.473036
9944.283333,48.373271
9944.683333,51.773288
9945.083333,48.773956
9945.75,54.473558
9946.216667,50.273138
9948.25,64.872985
9948.75,59.173383
9949.25,64.573923
9949.75,58.173606
9950.25,64.273893
9950.716667,57.773888
9951.25,63.873208
9951.716667,57.373203
9952.25,64.773298
9952.683333,57.973263
9953.266667,62.873431
9953.683333,58.573323
9954.266667,64.373581
9954.666667,58.973041
9955.666667,67.972973
9956.083333,63.273148
9956.666667,67.972973
9957.083333,63.273148
9958.5,66.573478
9959.916667,70.473868
9960.333333,69.273748
9960.666667,71.873363
9961.083333,67.373881
9961.616667,71.07296
9962.083333,66.473791
9962.616667,69.473123
9963.016667,66.073105
9964.383333,72.973796
9964.85,67.773598
9965.383333,70.473868
9965.85,65.673388
9966.383333,69.073406
9966.683333,66.173761
9967.083333,68.673688
9967.5,66.973195
9968.083333,70.673243
9968.5,66.073105
9969.083333,70.673243
9969.5,66.173761
9970.083333,70.673243
9970.5,66.173761
9971.083333,70.773898
9971.5,66.173761
9972.083333,70.673243
9972.5,66.173761
9973.083333,70.773898
9973.5,66.173761
9974.083333,70.673243
9974.5,66.173761
9975.083333,70.573556
9975.5,66.273448
9976.083333,70.773898
9976.5,66.273448
9977.083333,70.673243
9977.5,66.273448
9978.083333,70.673243
9978.5,66.273448
9979.083333,70.673243
9979.5,66.273448
9983.083333,70.373213
9983.5,69.073406
9984.083333,72.973796
9984.5,68.473346
9985.083333,72.673766
9985.466667,68.773376
9986.083333,73.373513
9986.416667,68.973718
9987.083333,73.073483
9987.416667,68.973718
9991.416667,69.473123
9992.25,72.473423
9994.466667,71.573333
9995.25,73.573856
9996.0,71.773676
9998.25,71.273303
9998.583333,71.07296
10001.25,70.873586
10001.583333,69.973496
10002.333333,72.073706
10003.083333,69.573778
10004.166667,71.273303
10007.116667,72.87314
10007.5,72.473423
10008.2,73.17317
10008.583333,71.37299
10008.95,74.37329
10009.283333,70.773898
10009.95,74.67332
10010.283333,71.07296
10010.983333,74.472978
10011.283333,70.673243
10013.083333,72.173393
10014.266667,73.17317
10014.666667,70.773898
10016.333333,74.172948
10020.416667,71.97305
10022.05,77.37359
10022.833333,77.173248
10023.083333,78.473055
10023.383333,74.573633
10025.083333,78.673398
10025.383333,75.27338
10027.083333,79.373145
10027.4,75.673098
10032.166667,76.4735
10033.916667,78.673398
10034.233333,75.87344
