time,pressure
0.0,252.488496
1.8,252.604637
4.066667,252.730457
5.466667,252.873697
23.4,252.984031
24.366667,253.020809
29.25,253.020809
31.983333,253.020809
33.55,253.020809
35.516667,253.020809
38.233333,253.020809
39.583333,253.020809
40.933333,253.020809
43.25,253.020809
45.933333,253.020809
47.333333,253.020809
48.716667,253.020809
50.983333,253.020809
57.6,253.020809
59.916667,253.020809
61.75,253.020809
63.616667,253.020809
65.6,253.020809
67.883333,253.020809
69.266667,253.020809
71.6,253.020809
77.116667,253.020809
79.516667,253.020809
82.0,253.020809
83.416667,253.020809
86.216667,253.020809
87.633333,253.020809
89.5,253.020809
91.833333,253.020809
93.716667,253.020809
95.55,253.020809
98.4,253.020809
103.483333,253.020809
105.983333,253.020809
107.383333,253.020809
110.2,253.020809
112.033333,253.020809
113.45,253.020809
114.883333,253.020809
117.666667,253.020809
119.533333,253.020809
122.433333,253.020809
124.65,253.020809
126.05,253.020809
127.833333,253.020809
131.733333,253.020809
133.1,253.020809
135.7,253.020809
137.383333,253.020809
141.8,253.020809
144.366667,253.020809
146.15,253.020809
147.95,253.020809
150.083333,253.020809
151.383333,253.020809
154.166667,253.020809
155.016667,253.020809
158.433333,253.020809
160.166667,253.020809
161.866667,253.020809
165.983333,253.020809
168.383333,253.020809
170.1,253.020809
171.783333,253.020809
174.35,253.020809
175.666667,253.020809
180.116667,253.020809
181.816667,253.020809
184.783333,253.020809
186.066667,253.020809
188.166667,253.020809
190.316667,253.020809
194.883333,253.020809
197.35,253.020809
200.4,253.020809
204.483333,253.020809
205.8,253.020809
208.466667,253.020809
210.65,253.020809
214.416667,253.020809
218.916667,253.020809
219.383333,253.020809
223.0,253.020809
226.633333,253.020809
227.033333,253.020809
228.816667,253.020809
232.366667,253.020809
234.133333,253.020809
234.983333,253.020809
239.516667,253.020809
241.766667,253.020809
243.883333,253.020809
252.183333,252.847565
253.533333,252.247504
256.683333,251.485813
258.05,250.914787
260.316667,250.385378
262.433333,249.918878
264.266667,249.584005
265.633333,249.149444
268.066667,249.149444
276.466667,249.149444
276.916667,249.149444
279.616667,249.149444
281.416667,249.149444
283.733333,249.047821
285.633333,248.806829
291.816667,248.534865
293.683333,248.350976
296.666667,248.22806
298.983333,248.181603
300.4,248.181603
303.216667,248.181603
305.983333,248.181603
307.85,248.181603
310.116667,248.181603
311.033333,248.181603
314.116667,248.181603
315.616667,248.181603
317.266667,248.181603
322.35,248.181603
324.616667,248.181603
329.7,248.181603
331.45,248.181603
334.25,248.181603
336.85,248.181603
337.333333,248.181603
342.2,248.181603
347.233333,248.181603
367.933333,248.031588
370.833333,247.996746
374.066667,247.968678
375.883333,247.941579
378.216667,247.918351
380.05,247.890283
381.4,247.86028
386.516667,247.832213
390.283333,247.730589
410.2,247.562185
411.133333,247.528311
413.483333,247.523471
416.15,247.500243
418.683333,247.476047
420.483333,247.44798
424.716667,247.427655
426.516667,247.41217
427.966667,247.392813
430.65,247.37152
432.466667,247.350228
434.316667,247.332807
435.716667,247.309579
438.983333,247.280543
443.033333,247.247637
446.75,247.223441
449.133333,247.208923
451.066667,247.199245
452.516667,247.183759
454.766667,247.161499
457.066667,247.140206
458.433333,247.125689
460.683333,247.112139
462.083333,247.09375
463.9,247.074393
466.9,247.05794
468.8,247.045358
470.7,247.03568
472.183333,247.019226
475.316667,246.999869
477.166667,246.982448
478.95,246.97277
479.416667,246.962124
482.216667,246.946638
484.583333,246.930185
486.383333,246.914699
487.783333,246.906957
490.733333,246.877921
494.0,246.831465
499.466667,246.781137
503.15,246.734681
506.5,246.683385
510.716667,246.644672
513.616667,246.631122
515.0,246.61854
516.866667,246.604022
517.783333,246.58273
520.183333,246.564341
524.8,246.542081
526.633333,246.515949
530.383333,246.489817
535.083333,246.472396
536.483333,246.456911
539.466667,246.440457
540.383333,246.428843
540.85,246.424004
541.75,246.409486
545.85,246.389162
547.233333,246.368837
549.566667,246.359159
551.383333,246.343673
553.683333,246.319477
560.333333,246.292378
564.2,246.284635
566.083333,246.236243
585.7,246.173333
588.033333,246.12978
589.883333,246.113327
591.3,246.102681
592.25,246.092034
597.266667,246.076549
599.516667,246.061064
601.366667,246.043642
606.633333,246.023318
609.633333,246.005897
612.016667,245.998154
613.866667,245.994282
615.233333,245.981701
618.15,245.962344
620.0,245.946858
621.383333,245.938148
623.733333,245.929437
625.666667,245.915887
627.516667,245.896531
633.3,245.877174
635.55,245.866527
638.3,245.86072
639.683333,245.849106
641.866667,245.835557
645.533333,245.827814
647.866667,245.826846
649.2,245.821039
651.916667,245.808457
654.65,245.798779
657.6,245.793939
658.933333,245.784261
662.2,245.773615
663.133333,245.763936
666.3,245.755226
670.0,245.742644
672.333333,245.732965
674.65,245.73103
676.0,245.730062
677.833333,245.718448
682.183333,245.707802
684.916667,245.665216
701.566667,245.617792
702.5,245.590693
706.383333,245.585854
708.233333,245.58295
710.55,245.580046
711.983333,245.572304
714.216667,245.557786
715.583333,245.546172
720.966667,245.537461
722.35,245.527783
731.25,245.516169
734.116667,245.504555
735.45,245.492941
739.6,245.489069
741.866667,245.488102
743.283333,245.480359
746.216667,245.463906
748.55,245.451324
754.983333,245.44842
755.933333,245.438742
758.583333,245.424224
759.916667,245.41261
760.85,245.409706
764.533333,245.408739
766.65,245.405835
768.95,245.400028
770.933333,245.393253
772.333333,245.38551
776.4,245.375832
778.416667,245.36325
780.666667,245.3497
782.95,245.342925
784.8,245.34099
785.666667,245.337118
787.5,245.329376
789.35,245.319697
792.583333,245.311954
795.8,245.30518
797.683333,245.298405
798.983333,245.293566
800.366667,245.287758
803.333333,245.27808
804.7,245.268402
807.433333,245.261627
809.25,245.257755
811.55,245.247109
815.616667,245.234527
815.983333,245.22872
819.2,245.227752
821.6,245.221945
823.916667,245.212267
825.5,245.205492
827.35,245.201621
829.216667,245.199685
831.366667,245.194846
833.983333,245.188071
835.383333,245.183232
836.3,245.180328
839.533333,245.174521
841.416667,245.166778
843.733333,245.154196
847.516667,245.130968
865.766667,245.089351
868.083333,245.051605
872.133333,245.031281
874.483333,245.016763
875.283333,244.997406
877.966667,244.984824
880.133333,244.975146
881.983333,244.974178
882.916667,244.977081
885.25,244.95095
887.966667,244.877394
889.366667,244.756414
891.666667,244.640273
893.983333,244.535746
895.4,244.37702
899.666667,244.198937
901.1,244.086668
904.216667,244.071182
923.483333,243.966655
924.85,243.950202
927.616667,243.931813
929.466667,243.910521
930.866667,243.897939
931.783333,243.891164
934.1,243.88826
935.483333,243.876646
938.733333,243.860193
940.633333,243.845675
942.4,243.834061
943.983333,243.823415
946.3,243.805994
948.483333,243.782766
950.6,243.763409
951.516667,243.746955
954.166667,243.730502
956.816667,243.70921
958.583333,243.684046
964.916667,243.660818
966.016667,243.650171
968.7,243.642429
972.9,243.629847
974.133333,243.616297
975.0,243.605651
977.716667,243.594037
979.85,243.618233
982.066667,243.670496
982.933333,243.703403
985.666667,243.687917
988.1,243.690821
990.216667,243.663721
991.966667,243.712113
994.75,243.781798
999.566667,243.760505
1002.2,243.75373
1003.5,243.745988
1005.816667,243.750827
1009.716667,243.777926
1011.65,243.757602
1013.5,243.474024
1028.233333,243.414986
1029.6,243.366594
1031.516667,243.366594
1034.183333,243.35498
1035.983333,243.338526
1040.25,243.324977
1041.966667,243.31917
1044.533333,243.316266
1046.283333,243.30562
1048.416667,243.29207
1050.166667,243.279488
1052.35,243.271745
1052.816667,243.261099
1056.05,243.244646
1057.733333,243.225289
1060.35,243.211739
1062.283333,243.203029
1062.716667,243.196254
1064.9,243.187543
1066.666667,243.178833
1069.3,243.169154
1071.433333,243.159476
1073.166667,243.146894
1075.183333,243.137216
1077.35,243.134312
1079.483333,243.134312
1079.966667,243.126569
1083.316667,243.111084
1084.566667,243.096566
1089.183333,243.083984
1091.65,243.066563
1093.716667,243.046238
1095.35,243.030753
1099.383333,243.060756
1101.85,243.117859
1103.483333,243.162379
1107.366667,243.14399
1108.183333,243.14883
1112.05,243.146894
1113.066667,243.11302
1115.016667,243.049142
1117.666667,243.012364
1118.116667,243.004621
1120.816667,242.998814
1123.116667,242.993975
1123.65,242.9872
1127.416667,242.975586
1129.533333,242.960101
1131.4,242.949454
1132.766667,242.946551
1136.083333,242.946551
1137.416667,242.941712
1140.483333,242.932033
1143.666667,242.925258
1144.933333,242.919451
1147.6,242.91558
1148.9,242.912676
1151.2,242.910741
1153.483333,242.903966
1155.95,242.898159
1158.133333,242.892352
1159.4,242.884609
1161.55,242.872027
1163.45,242.856542
1164.616667,242.83912
1167.883333,242.826539
1169.116667,242.817828
1171.1,242.812989
1173.266667,242.805246
1175.466667,242.796535
1177.483333,242.788793
1177.883333,242.783954
1181.883333,242.778146
1183.15,242.771372
1185.216667,242.7675
1188.1,242.764597
1189.35,242.760725
1191.283333,242.754918
1193.6,242.750079
1194.75,242.743304
1196.983333,242.737497
1198.483333,242.722012
1201.566667,242.703623
1205.316667,242.686202
1207.916667,242.676523
1210.083333,242.66878
1211.783333,242.662973
1214.266667,242.658134
1215.083333,242.652327
1217.533333,242.643617
1218.883333,242.63781
1221.116667,242.636842
1222.716667,242.638777
1225.183333,242.636842
1228.016667,242.631035
1228.9,242.623292
1231.883333,242.616517
1233.433333,242.608774
1235.383333,242.59716
1237.0,242.585546
1237.366667,242.571028
1242.1,242.558447
1243.35,242.543929
1246.816667,242.529411
1252.383333,242.510054
1254.516667,242.499408
1256.166667,242.49844
1258.5,242.501344
1260.466667,242.501344
1262.783333,242.495537
1263.966667,242.486826
1265.916667,242.478116
1268.8,242.470373
1270.5,242.46263
1271.333333,242.451984
1273.333333,242.433595
1276.816667,242.41327
1279.683333,242.397785
1284.766667,242.39101
1285.55,242.380364
1288.666667,242.369718
1292.183333,242.365846
1295.1,242.367782
1296.816667,242.365846
1299.4,242.361007
1300.283333,242.3552
1303.216667,242.351329
1304.45,242.343586
1307.7,242.333907
1308.966667,242.321325
1310.716667,242.309711
1313.85,242.293258
1317.5,242.276805
1319.833333,242.267126
1320.283333,242.263255
1322.5,242.257448
1324.55,242.251641
1329.9,242.251641
1331.233333,242.254544
1333.333333,242.252609
1335.483333,242.243898
1337.283333,242.233252
1343.333333,242.219702
1344.916667,242.205185
1348.45,242.19357
1352.283333,242.175181
1367.016667,242.155825
1372.05,242.144211
1372.466667,242.136468
1375.916667,242.129693
1377.583333,242.123886
1379.7,242.11324
1382.2,242.101626
1383.866667,242.092915
1385.933333,242.088076
1388.066667,242.083237
1389.733333,242.078397
1391.483333,242.07259
1393.283333,242.067751
1394.616667,242.059041
1399.15,242.051298
1402.283333,242.049362
1402.7,242.05033
1405.2,242.048394
1408.133333,242.045491
1409.8,242.041619
1412.3,242.035812
1413.55,242.02807
1416.0,242.017423
1417.7,242.006777
1418.533333,241.999034
1420.6,241.995163
1423.266667,241.990324
1424.583333,241.983549
1428.283333,241.975806
1429.45,241.969031
1431.866667,241.963224
1433.9,241.958385
1436.35,241.956449
1438.65,241.959353
1440.3,241.962256
1441.833333,241.961289
1444.633333,241.956449
1446.016667,241.950642
1448.066667,241.939028
1450.483333,241.921607
1452.5,241.899347
1454.5,241.879022
1456.55,241.86644
1458.166667,241.858697
1460.25,241.853858
1461.866667,241.851923
1464.716667,241.851923
1465.533333,241.853858
1468.816667,241.851923
1470.25,241.850955
1473.116667,241.847083
1478.383333,241.843212
1480.416667,241.835469
1481.616667,241.83063
1484.416667,241.827727
1486.466667,241.819016
1488.883333,241.807402
1490.233333,241.795788
1492.5,241.788045
1494.3,241.779334
1496.766667,241.774495
1498.1,241.768688
1500.633333,241.759978
1502.683333,241.752235
1504.716667,241.748364
1506.766667,241.751267
1510.45,241.755138
1512.133333,241.756106
1514.133333,241.754171
1516.65,241.752235
1519.866667,241.73191
1535.783333,241.694164
1537.533333,241.670936
1540.866667,241.67384
1547.55,241.675775
1549.266667,241.672872
1550.5,241.667065
1553.783333,241.661258
1555.9,241.655451
1557.583333,241.640933
1560.116667,241.621576
1561.866667,241.603187
1563.6,241.595445
1565.933333,241.591573
1571.566667,241.58867
1572.85,241.586734
1575.716667,241.578024
1577.75,241.568345
1580.983333,241.564474
1583.15,241.564474
1586.133333,241.560602
1588.15,241.555763
1588.616667,241.553827
1591.65,241.553827
1593.7,241.551892
1596.183333,241.547053
1597.783333,241.540278
1599.833333,241.538342
1602.3,241.540278
1603.916667,241.542213
1605.166667,241.544149
1606.8,241.550924
1610.183333,241.560602
1614.183333,241.564474
1615.483333,241.565442
1618.45,241.568345
1619.65,241.569313
1622.133333,241.560602
1624.233333,241.548988
1625.433333,241.538342
1627.95,241.526728
1630.183333,241.51221
1631.766667,241.498661
1633.4,241.484143
1636.016667,241.471561
1636.783333,241.460915
1638.983333,241.449301
1644.283333,241.437687
1645.1,241.429944
1646.75,241.424137
1649.983333,241.41833
1652.4,241.41833
1653.2,241.422201
1655.616667,241.423169
1657.2,241.41833
1658.816667,241.412523
1662.183333,241.407683
1664.2,241.403812
1665.783333,241.395102
1668.65,241.384455
1669.45,241.375745
1671.883333,241.371873
1673.533333,241.368002
1675.5,241.364131
1677.1,241.359291
1680.583333,241.353484
1683.333333,241.345742
1685.333333,241.343806
1690.483333,241.346709
1692.45,241.38252
1693.966667,241.443494
1695.95,241.474465
1698.516667,241.477368
1700.133333,241.477368
1701.333333,241.475432
1702.916667,241.43188
1707.65,241.362195
1709.383333,241.308964
1714.75,241.300253
1716.25,241.300253
1717.466667,241.294446
1719.816667,241.286703
1722.616667,241.280896
1724.55,241.276057
1726.516667,241.271218
1728.516667,241.266379
1730.133333,241.261539
1731.75,241.259604
1733.016667,241.254765
1736.566667,241.248958
1736.983333,241.242183
1740.483333,241.236376
1744.1,241.227665
1746.5,241.219922
1748.116667,241.215083
1748.916667,241.213147
1752.15,241.209276
1753.8,241.205405
1756.233333,241.201533
1758.05,241.199598
1760.45,241.196694
1762.083333,241.192823
1764.516667,241.189919
1765.75,241.189919
1768.533333,241.190887
1769.333333,241.189919
1772.116667,241.187984
1773.35,241.18508
1776.216667,241.18508
1779.0,241.18508
1780.55,241.181209
1782.35,241.174434
1783.516667,241.169595
1784.95,241.167659
1788.616667,241.165723
1790.483333,241.16282
1791.583333,241.15798
1793.45,241.153141
1794.566667,241.151206
1798.3,241.155077
1800.766667,241.158948
1801.483333,241.160884
1804.733333,241.160884
1808.75,241.163788
1809.95,241.164755
1811.533333,241.160884
1814.766667,241.155077
1815.95,241.150238
1817.95,241.148302
1820.366667,241.144431
1822.366667,241.141527
1824.316667,241.138624
1826.316667,241.134752
1829.1,241.127977
1832.066667,241.121203
1836.516667,241.116363
1838.9,241.112492
1840.066667,241.107653
1842.816667,241.104749
1844.816667,241.102814
1848.783333,241.098942
1850.783333,241.094103
1852.383333,241.091199
1853.4,241.090232
1855.716667,241.08636
1858.55,241.081521
1860.916667,241.080553
1861.333333,241.078617
1875.766667,241.066036
1877.833333,241.054421
1881.266667,241.049582
1883.183333,241.043775
1885.5,241.040872
1887.8,241.039904
1888.183333,241.038936
1891.25,241.037
1893.183333,241.033129
1895.866667,241.030225
1897.033333,241.02829
1899.366667,241.024418
1901.833333,241.021515
1902.233333,241.016676
1905.316667,241.010869
1906.8,241.005062
1909.516667,241.002158
1911.833333,240.998287
1914.2,240.996351
1914.566667,240.993447
1916.9,240.989576
1918.466667,240.983769
1920.783333,240.97893
1923.066667,240.974091
1926.416667,240.970219
1927.966667,240.964412
1930.633333,240.957637
1932.566667,240.95183
1933.716667,240.948927
1936.333333,240.945055
1938.2,240.938281
1942.45,240.930538
1943.25,240.925699
1945.15,240.923763
1947.833333,240.922795
1949.416667,240.918924
1951.866667,240.914085
1953.433333,240.909245
1956.233333,240.90731
1958.566667,240.906342
1960.516667,240.905374
1961.716667,240.901503
1963.616667,240.892792
1970.116667,240.883114
1974.083333,240.874403
1976.433333,240.868596
1978.366667,240.864725
1980.733333,240.861821
1982.683333,240.856982
1984.65,240.852143
1986.933333,240.848271
1988.883333,240.846336
1990.45,240.842464
1992.8,240.838593
1994.333333,240.833754
1996.316667,240.831818
1998.083333,240.829882
1999.633333,240.826979
2002.95,240.823107
2004.566667,240.820204
2007.75,240.816333
2010.916667,240.811493
2012.133333,240.807622
2013.716667,240.801815
2018.866667,240.796976
2019.283333,240.792137
2022.6,240.789233
2024.9,240.787297
2026.916667,240.783426
2029.316667,240.777619
2032.133333,240.774715
2034.533333,240.770844
2038.166667,240.765037
2040.966667,240.75923
2042.6,240.758262
2043.8,240.758262
2047.216667,240.756326
2048.8,240.751487
2051.166667,240.748584
2052.783333,240.747616
2054.75,240.748584
2056.333333,240.74568
2057.516667,240.739873
2061.083333,240.735034
2062.416667,240.73213
2064.416667,240.728259
2066.383333,240.724388
2066.8,240.720516
2070.35,240.716645
2072.683333,240.713741
2073.866667,240.710838
2075.85,240.707934
2078.016667,240.705999
2079.6,240.706967
2082.383333,240.705999
2084.35,240.704063
2084.75,240.701159
2088.716667,240.699224
2089.916667,240.698256
2091.483333,240.697288
2093.65,240.692449
2095.3,240.68761
2096.783333,240.684706
2099.433333,240.683738
2102.633333,240.680835
2104.233333,240.673092
2108.216667,240.667285
2112.95,240.665349
2113.733333,240.664382
2116.016667,240.66051
2117.783333,240.656639
2122.166667,240.652767
2124.95,240.650832
2126.183333,240.647928
2128.933333,240.645025
2130.116667,240.640185
2132.1,240.637282
2133.666667,240.635346
2136.466667,240.634378
2137.666667,240.633411
2140.1,240.629539
2141.466667,240.626636
2144.3,240.623732
2146.233333,240.619861
2149.05,240.616957
2151.766667,240.613086
2154.533333,240.607279
2158.9,240.601472
2160.083333,240.5976
2164.433333,240.593729
2165.766667,240.589858
2168.15,240.586954
2169.716667,240.584051
2172.883333,240.581147
2174.866667,240.578244
2176.85,240.574372
2180.716667,240.569533
2182.75,240.565662
2184.3,240.564694
2187.5,240.562758
2188.75,240.559855
2189.65,240.555983
