time,pressure
0.0,341.533552
0.001111,341.359554
0.001944,341.197453
0.003056,341.044683
0.003889,340.899849
0.005,340.762015
0.006111,340.630481
0.006944,340.504685
0.008056,340.384165
0.008889,340.268526
0.01,340.146474
0.011389,340.015578
0.012778,339.876189
0.014167,339.727872
0.016111,339.57096
0.018056,339.405209
0.020278,339.231377
0.0225,339.05016
0.025278,338.862681
0.028333,338.66959
0.031944,338.472039
0.035833,338.271235
0.040278,338.068285
0.045,337.864577
0.050556,337.661353
0.056667,337.459967
0.063611,337.261471
0.071389,337.066941
0.080278,336.877388
0.09,336.693261
0.101111,336.515223
0.113333,336.343538
0.127222,336.178075
0.142778,336.019025
0.16,335.865944
0.179444,335.718399
0.201389,335.576285
0.226111,335.438823
0.253611,335.305595
0.284722,335.176296
0.319444,335.050295
0.358333,334.92728
0.401944,334.806912
0.451111,334.688776
0.506111,334.572677
0.567778,334.458332
0.637222,334.345491
0.715,334.234038
0.802222,334.123747
0.9,334.014476
1.009722,333.90615
1.133056,333.798616
1.271389,333.691793
1.426389,333.585609
1.600556,333.479971
1.795833,333.374829
2.014722,333.270131
2.260833,333.165824
2.536667,333.061871
2.846111,332.958224
3.193333,332.854856
3.583056,332.751744
4.020278,332.648861
4.510556,332.546192
5.061111,332.443719
5.678611,332.341421
6.371389,332.239293
7.148889,332.137328
8.021389,332.03553
9.0,331.93662
10.098056,331.837489
11.330278,331.736355
12.712778,331.635537
14.264167,331.535117
16.004444,331.435276
17.957222,331.335521
20.148611,331.23488
22.606944,331.138594
25.365556,331.037192
28.460556,330.936419
31.933333,330.836046
35.829722,330.736264
40.201389,330.636238
45.106944,330.535833
50.610833,330.435686
56.786111,330.335526
63.715,330.23686
71.489444,330.137393
80.2125,330.036988
90.0,329.93787
100.981667,329.837194
113.303333,329.737547
127.128333,329.637705
142.640278,329.539442
160.045278,329.43842
179.573611,329.338218
201.485,329.238099
226.069722,329.13806
253.654444,329.037818
284.605,328.937426
319.331944,328.836835
358.296389,328.736317
402.015278,328.635776
451.068611,328.535128
506.107222,328.434566
567.861667,328.334043
637.151111,328.233562
714.895278,328.133138
802.125833,328.0327
900.0,327.932283
1009.816667,327.83182
1133.032778,327.731248
1271.283889,327.630492
1426.403889,327.529459
1600.451389,327.428081
1795.736111,327.326303
2014.848889,327.224069
2260.697778,327.12141
2536.544722,327.018418
2846.05,326.915147
3193.320556,326.811722
3582.964444,326.708293
4020.152222,326.604846
4458.152222,326.512045
4896.152222,326.42801
5334.152222,326.351271
5772.152222,326.280703
6210.152222,326.215432
6648.152222,326.154726
7086.152222,326.097951
7524.152222,326.044654
7962.152222,325.994419
8400.152222,325.946943
8838.152222,325.901895
9276.152222,325.85907
9714.152222,325.818241
10152.152222,325.779238
10590.152222,325.741881
11028.152222,325.706026
11466.152222,325.67158
11904.152222,325.638408
12342.152222,325.606403
12780.152222,325.575531
13218.152222,325.545632
13656.152222,325.51665
14094.152222,325.488583
14532.152222,325.461302
14970.152222,325.43481
15408.152222,325.408995
15846.152222,325.383815
16284.152222,325.359286
16722.152222,325.335321
17160.152222,325.311883
17598.152222,325.288934
18036.152222,325.266471
18474.152222,325.24445
18912.152222,325.222846
19350.152222,325.20161
19788.152222,325.180757
20226.152222,325.160237
20664.152222,325.140049
21102.152222,325.120156
21540.152222,325.10055
21978.152222,325.081211
22416.152222,325.062132
22854.152222,325.043289
23292.152222,325.024663
23730.152222,325.006254
24168.152222,324.988046
24606.152222,324.970026
25044.152222,324.952183
25482.152222,324.93451
25920.152222,324.916991
26358.152222,324.899624
26796.152222,324.882397
27234.152222,324.865304
27672.152222,324.848338
28110.152222,324.831492
28548.152222,324.814756
28986.152222,324.798129
29424.152222,324.781604
29862.152222,324.765175
30300.152222,324.748836
30738.152222,324.732582
31176.152222,324.716409
31614.152222,324.700311
32052.152222,324.684285
32490.152222,324.668327
32928.152222,324.652434
33366.152222,324.636602
33804.152222,324.620829
34242.152222,324.60511
34680.152222,324.589444
35118.152222,324.573828
35556.152222,324.558258
35994.152222,324.542733
36432.152222,324.527251
36870.152222,324.511808
37308.152222,324.496402
37746.152222,324.481035
38184.152222,324.4657
38622.152222,324.450398
39060.152222,324.435126
39498.152222,324.419883
39936.152222,324.404668
40374.152222,324.389479
40812.152222,324.374314
41250.152222,324.359174
41688.152222,324.344056
42126.152222,324.328959
42564.152222,324.313882
43002.152222,324.298825
43440.152222,324.283785
43878.152222,324.268763
44316.152222,324.253758
44754.152222,324.238768
45192.152222,324.223794
45630.152222,324.208833
46068.152222,324.193889
46506.152222,324.178958
46944.152222,324.164038
47382.152222,324.14913
47820.152222,324.134233
48258.152222,324.119346
48696.152222,324.104468
49134.152222,324.0896
49572.152222,324.074741
50010.152222,324.059891
50448.152222,324.045048
50886.152222,324.030214
51324.152222,324.015386
51762.152222,324.000566
52200.152222,323.985753
52638.152222,323.970946
53076.152222,323.956146
53514.152222,323.941351
53952.152222,323.926562
54390.152222,323.911778
54828.152222,323.897001
55266.152222,323.882229
55704.152222,323.867461
56142.152222,323.852697
56580.152222,323.837937
57018.152222,323.823181
57456.152222,323.808429
57894.152222,323.793681
58332.152222,323.778937
58770.152222,323.764196
59208.152222,323.749458
59646.152222,323.734724
60084.152222,323.719992
60522.152222,323.705265
60960.152222,323.69054
61398.152222,323.675818
61836.152222,323.661098
62274.152222,323.646382
62712.152222,323.631667
63150.152222,323.616955
63588.152222,323.602245
64026.152222,323.587537
64464.152222,323.572831
64902.152222,323.558127
65340.152222,323.543425
65778.152222,323.528725
66216.152222,323.514027
66654.152222,323.49933
67092.152222,323.484635
67530.152222,323.469943
67968.152222,323.455252
68406.152222,323.440562
68844.152222,323.425874
69282.152222,323.411188
69720.152222,323.396504
70158.152222,323.381822
70596.152222,323.36714
71034.152222,323.352461
71472.152222,323.337782
71910.152222,323.323105
72348.152222,323.308431
72786.152222,323.293758
73224.152222,323.279085
73662.152222,323.264413
74100.152222,323.249742
74538.152222,323.235072
74976.152222,323.220402
75414.152222,323.205734
75852.152222,323.191067
76290.152222,323.176401
76728.152222,323.161736
77166.152222,323.147072
77604.152222,323.132408
78042.152222,323.117746
78480.152222,323.103084
78918.152222,323.088424
79356.152222,323.073765
79794.152222,323.059107
80232.152222,323.044449
80670.152222,323.029793
81108.152222,323.015138
81546.152222,323.000484
81984.152222,322.98583
82422.152222,322.971178
82860.152222,322.956525
83298.152222,322.941874
83736.152222,322.927224
84174.152222,322.912574
84612.152222,322.897925
85050.152222,322.883277
85488.152222,322.86863
85926.152222,322.853983
86364.152222,322.839337
86802.152222,322.824693
87240.152222,322.810048
87600.0,322.798018
