time,pressure
0.0,249.390572
0.398056,236.150538
0.988889,217.848708
1.388889,210.773807
1.716667,206.408854
2.456389,199.595269
3.032222,195.994909
3.391667,194.272157
3.73,192.86879
4.021667,191.804168
4.365,190.720188
4.365278,190.720188
5.019167,188.978079
5.375,188.223165
5.680278,187.623105
6.042778,186.994009
6.419167,186.403628
6.701389,185.997135
7.027778,185.571286
7.464167,185.048654
7.785,184.690553
8.079722,184.419558
8.494722,184.022744
9.115833,183.480755
9.55,183.180725
9.875278,182.958122
10.101389,182.958122
10.308056,182.716162
10.601944,182.570986
10.846667,182.570986
10.875,182.406454
11.297222,182.135459
11.595556,181.970926
11.887778,181.845107
12.293333,181.641861
12.636111,181.487007
13.386667,181.196655
13.679722,181.090193
14.0025,180.954696
14.379444,180.848233
14.636667,180.75145
14.973056,180.644987
15.422778,180.519168
15.720556,180.441741
16.023889,180.344957
16.422222,180.257852
16.751389,180.180425
17.042222,180.102998
17.343889,180.025571
17.603333,179.977179
17.893889,179.919108
18.29,179.832003
18.604167,179.773933
18.880278,179.725541
19.2925,179.628757
19.606389,179.590043
19.852778,179.531973
20.132222,179.483581
20.529167,179.415832
20.833611,179.357762
21.278889,179.357762
21.540556,179.270656
21.866389,179.231943
22.262222,179.231943
22.282222,179.115802
22.915278,178.980305
23.614444,178.864164
23.928611,178.815772
24.2875,178.757702
24.603889,178.70931
24.909167,178.680275
25.266111,178.631883
25.571111,178.612526
25.904167,178.564134
26.593333,178.515742
26.871111,178.496385
27.636944,178.40928
27.949167,178.380245
28.364444,178.341531
29.319444,178.244747
29.680278,178.176999
29.983333,178.138285
30.393611,178.128607
31.253889,178.128607
31.433611,178.099572
32.024167,178.089893
32.285278,178.089893
32.446667,178.002788
32.923889,177.944717
33.312778,177.886647
33.651667,177.86729
34.361111,177.828577
34.647222,177.80922
34.948611,177.80922
35.326111,177.789863
35.575556,177.780185
35.878056,177.75115
36.454444,177.741471
36.803056,177.722114
37.125278,177.702758
37.544722,177.673722
37.8725,177.664044
38.167778,177.644687
38.507222,177.635009
39.093611,177.615652
39.444444,177.596295
40.099167,177.586617
40.791111,177.586617
40.840833,177.605974
41.154722,177.625331
41.534444,177.635009
41.820556,177.635009
42.261944,177.576939
42.574722,177.547903
42.888333,177.547903
43.306944,177.538225
43.612222,177.528547
43.958333,177.518868
45.303333,177.50919
45.586944,177.499512
46.2875,177.480155
46.618056,177.480155
47.169444,177.470476
47.772778,177.45112
49.111944,177.402728
49.855,177.393049
50.158889,177.383371
50.57,177.393049
50.614444,177.393049
50.859444,177.422084
51.654167,177.422084
51.782222,177.422084
52.138333,177.393049
52.329444,177.393049
53.547222,177.344657
53.856667,177.334979
54.286111,177.315622
54.636944,177.344657
54.936111,177.325301
55.331944,177.325301
55.665,177.315622
55.975833,177.315622
56.377222,177.315622
56.6475,177.315622
56.915556,177.305944
57.33,177.315622
57.657778,177.305944
57.975556,177.315622
58.355278,177.286587
58.643889,177.305944
58.921944,177.305944
59.306944,177.315622
59.613056,177.315622
59.6625,177.344657
59.976111,177.373692
60.311111,177.373692
60.345,177.373692
60.665,177.344657
60.963056,177.344657
61.619444,177.315622
62.340833,177.315622
62.665833,177.315622
63.355556,177.286587
64.892222,177.26723
65.320278,177.26723
65.864444,177.276909
66.583611,177.286587
66.911667,177.296265
67.316944,177.276909
67.602222,177.276909
67.905,177.296265
67.961944,177.296265
68.299722,177.344657
68.620833,177.373692
69.008056,177.373692
69.370556,177.334979
69.686389,177.325301
70.385,177.325301
70.638889,177.305944
71.670833,177.334979
71.970556,177.344657
72.348889,177.364014
72.663333,177.344657
72.955556,177.354336
73.353333,177.344657
73.918333,177.334979
74.288611,177.344657
74.603611,177.334979
74.927222,177.325301
75.2575,177.334979
75.814167,177.334979
75.901389,177.393049
76.845,177.393049
77.363889,177.383371
77.650556,177.383371
77.972222,177.373692
78.396944,177.393049
78.67,177.383371
78.928611,177.373692
79.341667,177.373692
79.656111,177.383371
79.998333,177.393049
80.381389,177.402728
80.675833,177.393049
80.9425,177.373692
81.37,177.393049
81.649444,177.383371
81.950278,177.383371
82.636111,177.402728
82.947778,177.373692
83.341389,177.393049
83.632778,177.393049
83.861667,177.393049
83.913333,177.393049
84.526111,177.460798
84.855,177.489833
84.978889,177.489833
85.261389,177.45112
85.571944,177.45112
85.871111,177.431763
86.1525,177.431763
86.545833,177.441441
86.870556,177.412406
87.926667,177.431763
88.312778,177.422084
88.599722,177.431763
88.931667,177.422084
89.349722,177.431763
89.651667,177.431763
89.961667,177.45112
90.314167,177.431763
90.594167,177.441441
90.934444,177.45112
91.332222,177.45112
91.664722,177.460798
91.845556,177.460798
92.666111,177.538225
92.686111,177.557582
92.927222,177.547903
93.302222,177.50919
93.566667,177.50919
94.298611,177.50919
94.596111,177.499512
94.896111,177.499512
95.501667,177.499512
96.515278,177.518868
96.794167,177.528547
97.106944,177.547903
97.5,177.538225
97.814167,177.557582
98.547778,177.557582
99.147778,177.576939
99.586111,177.576939
99.906111,177.576939
100.3525,177.56726
100.729444,177.56726
100.856389,177.635009
101.146667,177.664044
101.490833,177.664044
101.52,177.644687
101.876111,177.625331
102.280833,177.625331
102.571667,177.625331
102.8975,177.625331
103.266944,177.625331
103.616111,177.635009
103.920833,177.625331
104.304167,177.615652
104.630556,177.605974
105.603333,177.605974
106.333611,177.615652
106.594167,177.596295
107.283333,177.605974
107.607222,177.605974
108.286944,177.625331
108.5925,177.615652
109.319167,177.693079
109.594722,177.722114
109.801944,177.722114
109.826111,177.702758
110.139444,177.664044
110.516389,177.664044
110.7825,177.644687
111.107778,177.644687
111.522778,177.625331
111.817778,177.635009
112.129444,177.644687
112.513056,177.664044
112.803611,177.664044
113.090556,177.673722
113.473611,177.673722
113.788056,177.683401
114.485278,177.702758
115.039444,177.712436
115.414444,177.731793
116.0475,177.722114
116.432778,177.731793
116.676667,177.722114
116.953333,177.722114
116.973611,177.770506
117.345278,177.80922
117.660556,177.828577
117.943611,177.799542
118.116944,177.799542
118.398333,177.780185
119.318611,177.780185
119.643333,177.770506
120.312778,177.75115
120.608333,177.780185
121.295833,177.770506
121.615556,177.799542
121.933333,177.789863
122.292222,177.789863
122.594167,177.780185
122.926111,177.799542
123.29,177.789863
123.552222,177.799542
123.871389,177.80922
124.271667,177.80922
124.405,177.818898
125.523889,177.80922
125.832778,177.847933
125.873056,177.847933
126.126389,177.857612
126.542778,177.906004
126.835,177.886647
126.881667,177.886647
127.125,177.857612
127.470833,177.838255
128.027778,177.828577
128.42,177.80922
128.723056,177.80922
129.443611,177.789863
130.099722,177.760828
130.733611,177.770506
131.031667,177.760828
131.4525,177.741471
131.761667,177.75115
132.063333,177.741471
132.4375,177.741471
132.733333,177.731793
133.027778,177.731793
133.403333,177.741471
133.685,177.731793
134.254444,177.731793
134.598056,177.789863
135.271667,177.789863
135.331111,177.799542
135.645,177.789863
135.941389,177.780185
136.388889,177.780185
136.667778,177.760828
136.945278,177.770506
137.6375,177.770506
138.3625,177.75115
138.653611,177.760828
138.952778,177.760828
139.308333,177.760828
139.619722,177.770506
139.904444,177.760828
140.584722,177.75115
141.171667,177.770506
141.827222,177.780185
142.130556,177.770506
142.829444,177.80922
142.875278,177.80922
143.119167,177.847933
143.484167,177.876969
143.774444,177.876969
143.801667,177.876969
144.133889,177.86729
144.508611,177.838255
144.847222,177.847933
145.153611,177.838255
145.763611,177.818898
145.993333,177.828577
146.3725,177.818898
146.716944,177.799542
147.099444,177.80922
147.456389,177.80922
147.734722,177.799542
148.415,177.80922
148.948889,177.799542
149.346944,177.818898
149.618056,177.818898
150.321389,177.80922
150.625833,177.80922
150.963333,177.80922
151.369722,177.799542
151.658333,177.838255
151.842778,177.838255
152.003889,177.876969
152.343333,177.876969
152.6425,177.838255
152.688611,177.838255
152.942778,177.80922
153.365,177.80922
153.601111,177.80922
153.78,177.789863
154.057778,177.789863
154.39,177.770506
154.638611,177.770506
155.304722,177.789863
155.944722,177.770506
156.367778,177.780185
156.677778,177.789863
157.009444,177.789863
157.665,177.780185
157.972778,177.760828
158.374444,177.75115
158.6825,177.75115
158.991389,177.760828
159.357222,177.770506
159.635833,177.780185
159.723056,177.770506
160.452222,177.770506
160.739722,177.780185
161.085,177.780185
161.484167,177.780185
161.801667,177.770506
162.164722,177.760828
162.901944,177.770506
163.280556,177.789863
163.783611,177.780185
164.039167,177.770506
164.664722,177.760828
164.930278,177.760828
165.589722,177.760828
165.914167,177.770506
166.355833,177.780185
167.623611,177.789863
167.915833,177.780185
168.263333,177.770506
168.590556,177.780185
168.921389,177.780185
169.324722,177.789863
169.956389,177.799542
170.359444,177.799542
170.661111,177.799542
171.663611,177.80922
171.957222,177.789863
172.461389,177.789863
172.950833,177.789863
173.155833,177.876969
173.560278,177.886647
173.825833,177.86729
174.006389,177.86729
174.103611,177.876969
174.531111,177.847933
174.847222,177.838255
175.859444,177.847933
176.146944,177.838255
176.874167,177.828577
177.161389,177.818898
177.458056,177.80922
177.798333,177.80922
178.439444,177.780185
179.050556,177.789863
179.405,177.780185
179.694722,177.770506
179.981944,177.760828
180.373056,177.770506
180.699444,177.760828
181.029444,177.760828
181.728611,177.75115
182.027222,177.770506
182.3775,177.741471
182.955833,177.760828
183.3525,177.760828
183.665,177.770506
183.971389,177.75115
185.019444,177.760828
185.705556,177.75115
185.985278,177.770506
186.379167,177.770506
187.391667,177.770506
188.038056,177.780185
189.797222,177.75115
190.1225,177.731793
190.505556,177.731793
190.622778,177.741471
190.841667,177.731793
191.123056,177.731793
191.523611,177.712436
191.843333,177.722114
192.104722,177.731793
192.777222,177.731793
194.533056,177.722114
195.618611,177.722114
195.913889,177.722114
196.319722,177.712436
196.547778,177.731793
197.331944,177.712436
197.642778,177.722114
197.915278,177.712436
198.581111,177.722114
198.896389,177.722114
199.276111,177.722114
199.886944,177.722114
200.336944,177.722114
200.643056,177.722114
200.934722,177.702758
201.307778,177.693079
201.566111,177.712436
201.805556,177.712436
202.124722,177.702758
202.767778,177.702758
203.069167,177.693079
203.451667,177.693079
203.768889,177.673722
204.059167,177.673722
204.394722,177.664044
204.689167,177.664044
204.945556,177.664044
205.619444,177.664044
205.968611,177.673722
206.394722,177.673722
207.001944,177.683401
207.728889,177.683401
208.018611,177.673722
208.398889,177.683401
208.6575,177.693079
208.947778,177.693079
209.353889,177.683401
209.684167,177.693079
209.970278,177.702758
210.2925,177.683401
210.546944,177.693079
210.825,177.683401
211.135278,177.683401
211.564167,177.683401
211.828889,177.673722
212.563611,177.673722
212.855556,177.673722
213.728611,177.673722
214.005278,177.664044
214.405278,177.673722
214.731667,177.673722
215.060556,177.664044
215.3525,177.644687
215.596944,177.664044
215.886944,177.673722
216.299167,177.673722
216.599167,177.673722
216.853056,177.673722
217.123889,177.673722
217.503056,177.673722
217.842222,177.673722
218.16,177.683401
218.590556,177.673722
219.283056,177.673722
219.596111,177.683401
220.155833,177.673722
221.301111,177.664044
221.611667,177.673722
221.9225,177.683401
222.339444,177.673722
223.742222,177.683401
224.062778,177.702758
224.466944,177.693079
224.7575,177.693079
225.517778,177.702758
225.838333,177.683401
226.165556,177.693079
226.572778,177.702758
226.922222,177.693079
227.336667,177.702758
227.646944,177.693079
227.98,177.673722
228.421944,177.683401
228.750556,177.673722
229.053611,177.693079
229.487778,177.683401
229.812222,177.693079
230.124167,177.693079
230.852778,177.722114
231.173611,177.731793
232.548611,177.731793
232.879722,177.731793
233.571944,177.731793
233.887222,177.731793
234.1625,177.731793
234.541944,177.722114
234.840278,177.731793
235.14,177.722114
235.535556,177.722114
235.835,177.712436
236.139167,177.722114
236.668056,177.712436
236.995833,177.702758
237.623056,177.702758
237.870278,177.712436
238.065833,177.712436
238.283333,177.741471
238.859722,177.741471
238.886111,177.75115
239.276667,177.731793
239.8575,177.712436
240.170833,177.702758
240.543611,177.702758
241.116944,177.693079
241.768056,177.683401
242.731944,177.683401
243.344722,177.693079
243.640278,177.693079
243.946667,177.693079
244.326111,177.702758
244.590556,177.712436
245.329167,177.712436
245.655278,177.702758
245.959444,177.712436
246.378056,177.702758
246.691111,177.702758
247.028611,177.702758
247.436111,177.731793
247.491944,177.731793
248.079444,177.760828
248.460556,177.760828
248.799722,177.722114
249.115278,177.712436
249.810556,177.693079
250.123611,177.683401
250.559722,177.693079
250.885278,177.683401
251.3125,177.664044
251.619722,177.673722
251.9625,177.644687
252.344444,177.664044
252.682778,177.664044
253.035556,177.644687
253.412222,177.635009
253.731111,177.635009
254.024722,177.625331
254.418333,177.635009
254.752778,177.635009
255.095278,177.644687
255.7975,177.664044
256.495,177.683401
256.804167,177.683401
257.062778,177.693079
257.118333,177.693079
258.013333,177.693079
258.041389,177.731793
258.284444,177.722114
258.621667,177.722114
259.377222,177.702758
260.009444,177.673722
260.452778,177.693079
260.754722,177.693079
261.548611,177.683401
261.8675,177.683401
262.6025,177.702758
263.323056,177.693079
263.626111,177.712436
263.927778,177.693079
264.289167,177.712436
264.570278,177.693079
265.274444,177.702758
265.875833,177.702758
266.285833,177.693079
266.644167,177.693079
266.874167,177.731793
267.617778,177.789863
267.666111,177.789863
267.930278,177.760828
268.717222,177.741471
269.285278,177.722114
269.5825,177.731793
270.141389,177.702758
270.508333,177.712436
270.775278,177.722114
271.0825,177.712436
271.535556,177.693079
271.843889,177.702758
272.143611,177.702758
272.586944,177.693079
272.881667,177.683401
273.156111,177.693079
273.5425,177.673722
273.862778,177.683401
274.166667,177.673722
274.560278,177.683401
274.845556,177.673722
275.170556,177.664044
275.523889,177.712436
275.564167,177.712436
275.851389,177.722114
276.110278,177.741471
276.44,177.741471
276.805,177.712436
277.077778,177.702758
277.414444,177.683401
277.748056,177.683401
278.056389,177.664044
278.466944,177.644687
278.781111,177.644687
279.479167,177.635009
279.744167,177.635009
280.071111,177.635009
280.408056,177.635009
280.815556,177.615652
281.102222,177.625331
281.531389,177.615652
281.839444,177.625331
282.099444,177.625331
282.440833,177.625331
282.789167,177.615652
283.071944,177.635009
283.453056,177.635009
283.757222,177.644687
284.029167,177.644687
284.403333,177.664044
284.723056,177.702758
285.000556,177.702758
285.742778,177.702758
285.769167,177.741471
286.075556,177.731793
286.478889,177.722114
286.776111,177.712436
287.088889,177.693079
287.499722,177.683401
287.781111,177.673722
288.5275,177.673722
289.091111,177.664044
289.501667,177.664044
289.796389,177.644687
290.088333,177.644687
290.520833,177.673722
290.859722,177.673722
291.101944,177.664044
291.427778,177.673722
291.761111,177.664044
292.081389,177.644687
292.641111,177.673722
293.411111,177.673722
293.498056,177.722114
293.786111,177.741471
294.460833,177.741471
294.507778,177.75115
295.145556,177.731793
295.867778,177.712436
296.285278,177.702758
296.603889,177.693079
296.909167,177.673722
297.5575,177.664044
297.886111,177.664044
298.172778,177.673722
298.911111,177.644687
299.290833,177.635009
299.611389,177.644687
300.303889,177.615652
300.593889,177.625331
300.859167,177.605974
301.431389,177.625331
301.7525,177.615652
302.416944,177.615652
302.556667,177.615652
302.749167,177.635009
303.0375,177.664044
303.363611,177.664044
303.388889,177.693079
303.998056,177.664044
304.388056,177.635009
304.682778,177.625331
305.648611,177.625331
305.972222,177.625331
306.363333,177.625331
306.684167,177.625331
307.001389,177.625331
307.6525,177.615652
307.950556,177.625331
308.399722,177.635009
308.729167,177.635009
309.015278,177.635009
309.4525,177.635009
309.748889,177.635009
310.068889,177.635009
310.439444,177.635009
310.735833,177.635009
311.044444,177.644687
311.438889,177.693079
311.490278,177.693079
311.704444,177.722114
312.006389,177.731793
312.361667,177.731793
312.708333,177.693079
313.011667,177.683401
313.423333,177.673722
314.051111,177.673722
314.437778,177.664044
314.745556,177.673722
315.051389,177.673722
315.405278,177.683401
315.729167,177.673722
316.656944,177.683401
317.355,177.673722
317.667778,177.644687
317.946944,177.673722
318.266389,177.644687
318.591111,177.673722
318.909722,177.644687
319.283056,177.644687
319.822222,177.664044
320.1275,177.664044
320.536667,177.683401
321.072222,177.683401
321.2725,177.712436
321.578889,177.731793
321.834722,177.75115
322.092778,177.75115
322.138611,177.75115
332.428611,177.635009
332.666944,177.664044
332.946667,177.673722
333.336944,177.644687
333.655,177.664044
334.348333,177.673722
334.639444,177.644687
334.923333,177.644687
335.306111,177.664044
335.6175,177.635009
335.877222,177.644687
336.164167,177.683401
336.522222,177.683401
336.576389,177.731793
336.888611,177.741471
337.264722,177.741471
337.651111,177.693079
337.919722,177.693079
338.171944,177.673722
338.582778,177.644687
339.310278,177.605974
339.7925,177.615652
340.469444,177.605974
341.000556,177.586617
341.391389,177.576939
342.325556,177.586617
342.665278,177.596295
343.37,177.576939
343.704722,177.56726
344.0,177.586617
344.348611,177.557582
344.609444,177.56726
344.86,177.557582
345.553056,177.557582
345.595,177.586617
345.880556,177.615652
346.173889,177.635009
346.580833,177.635009
346.643611,177.635009
346.890278,177.635009
347.265556,177.615652
347.570556,177.605974
347.887222,177.615652
348.56,177.664044
348.878889,177.673722
349.539722,177.683401
349.859167,177.693079
350.171944,177.693079
350.559722,177.673722
350.885833,177.673722
351.269722,177.693079
351.564722,177.683401
351.886944,177.693079
352.153611,177.693079
352.553611,177.673722
352.833333,177.693079
353.155833,177.673722
353.553889,177.664044
353.848889,177.664044
354.147222,177.644687
354.519444,177.644687
354.794444,177.664044
354.954167,177.664044
355.008611,177.693079
355.680833,177.741471
355.964444,177.741471
355.998056,177.731793
356.394444,177.722114
356.694444,177.731793
357.386944,177.712436
357.721667,177.712436
358.343056,177.731793
358.58,177.731793
358.878611,177.731793
359.631667,177.722114
359.910278,177.712436
360.321111,177.712436
360.599444,177.722114
360.895833,177.693079
361.269722,177.683401
361.553333,177.693079
361.873611,177.712436
362.158611,177.712436
362.942778,177.702758
363.3,177.702758
363.620556,177.683401
363.928333,177.683401
364.360833,177.693079
364.397778,177.693079
364.653333,177.712436
364.933611,177.731793
365.309722,177.731793
365.655833,177.702758
366.333611,177.664044
366.641944,177.664044
366.934722,177.664044
367.309444,177.664044
367.598889,177.664044
367.888333,177.693079
368.282222,177.673722
368.576667,177.683401
369.2875,177.683401
369.590833,177.673722
369.926111,177.673722
370.325556,177.673722
370.599167,177.673722
370.895,177.673722
371.512222,177.683401
371.736667,177.683401
372.021944,177.683401
372.397222,177.702758
372.657778,177.683401
372.916667,177.712436
373.2925,177.702758
373.574722,177.702758
373.858056,177.712436
374.05,177.712436
374.123611,177.722114
374.449722,177.75115
374.728611,177.770506
374.996111,177.75115
375.080556,177.75115
376.019444,177.712436
376.407222,177.702758
376.7075,177.702758
388.051944,179.028697
