time,pressure
0.0,128.601589
0.083333,128.121541
0.583333,124.941223
0.833333,122.321283
1.333333,120.841458
1.833333,117.341753
3.083333,113.341676
4.833333,108.341821
7.583333,103.341966
9.333333,99.341888
13.833333,93.341288
19.833333,87.341656
22.833333,84.341356
26.833333,80.341279
29.083333,79.341501
31.833333,77.341947
39.833333,70.341569
43.833333,67.341269
46.833333,65.341714
50.833333,63.342159
55.833333,60.341859
60.833333,58.341337
67.833333,55.342005
70.833333,54.341259
74.833333,52.341705
79.833333,51.341927
84.833333,49.341405
91.833333,46.342072
94.833333,45.341327
98.833333,43.341772
103.833333,42.341995
108.833333,40.341472
115.833333,39.341695
118.833333,38.341917
122.833333,37.34214
128.583333,35.341617
132.833333,36.341395
139.833333,36.341395
142.833333,36.341395
146.833333,35.341617
151.833333,35.341617
156.833333,34.34184
163.833333,34.34184
166.833333,34.34184
170.833333,33.342063
175.833333,33.342063
180.833333,33.342063
183.833333,33.342063
190.833333,32.341317
194.833333,33.342063
200.583333,33.342063
204.833333,32.341317
207.833333,32.341317
214.833333,32.341317
218.833333,32.341317
223.833333,32.341317
225.833333,32.341317
228.833333,32.341317
231.833333,31.34154
238.833333,31.34154
242.833333,31.34154
247.833333,31.34154
252.833333,31.34154
255.833333,31.34154
262.833333,31.34154
266.833333,31.34154
271.833333,31.34154
274.833333,31.34154
276.833333,31.34154
283.833333,32.341317
286.833333,32.341317
290.833333,32.341317
295.833333,32.341317
300.833333,32.341317
307.833333,32.341317
310.833333,32.341317
314.833333,32.341317
319.833333,32.341317
324.833333,32.341317
331.833333,32.341317
334.833333,32.341317
338.833333,32.341317
343.833333,32.341317
348.833333,32.341317
355.833333,32.341317
358.833333,32.341317
362.833333,32.341317
367.833333,32.341317
372.833333,32.341317
379.833333,32.341317
382.833333,32.341317
386.833333,32.341317
397.833333,32.341317
403.833333,32.341317
406.833333,32.341317
415.833333,32.341317
427.833333,32.341317
430.833333,32.341317
435.833333,32.341317
451.833333,30.341763
463.833333,30.341763
475.833333,30.341763
487.833333,30.341763
499.833333,31.34154
511.833333,31.34154
523.833333,31.34154
535.833333,31.34154
547.833333,31.34154
559.833333,31.34154
571.833333,31.34154
583.833333,31.34154
595.833333,31.34154
607.833333,31.34154
619.833333,31.34154
631.833333,31.34154
643.833333,31.34154
655.833333,31.34154
667.833333,31.34154
679.833333,31.34154
691.833333,31.34154
703.833333,31.34154
715.833333,31.34154
727.833333,31.34154
739.833333,31.34154
751.833333,32.341317
763.833333,31.34154
775.833333,31.34154
787.833333,31.34154
799.833333,31.34154
811.833333,31.34154
823.833333,31.34154
835.833333,31.34154
847.833333,31.34154
859.833333,31.34154
871.833333,31.34154
883.833333,31.34154
895.833333,31.34154
907.833333,31.34154
919.833333,31.34154
931.833333,31.34154
943.833333,31.34154
955.833333,31.34154
967.833333,31.34154
979.833333,31.34154
991.833333,31.34154
1003.833333,32.341317
1015.833333,32.341317
1027.833333,32.341317
1039.833333,32.341317
1051.833333,32.341317
1063.833333,32.341317
1075.833333,31.34154
1087.833333,31.34154
1099.833333,32.341317
1111.833333,32.341317
1123.833333,32.341317
1135.833333,32.341317
1147.833333,32.341317
1159.833333,32.341317
1171.833333,32.341317
1183.833333,32.341317
1195.833333,32.341317
1207.833333,32.341317
1219.833333,33.342063
1231.833333,33.342063
1243.833333,33.342063
1255.833333,33.342063
1267.833333,33.342063
1279.833333,33.342063
1291.833333,33.342063
1303.833333,33.342063
1315.833333,33.342063
1327.833333,33.342063
1339.833333,33.342063
1351.833333,33.342063
1363.833333,33.342063
1375.833333,33.342063
1387.833333,33.342063
1399.833333,33.342063
1411.833333,33.342063
1423.833333,33.342063
1435.833333,33.342063
1447.833333,33.342063
1459.833333,33.342063
1471.833333,33.342063
1483.833333,33.342063
1495.833333,33.342063
1507.833333,33.342063
1519.833333,33.342063
1531.833333,33.342063
1543.833333,33.342063
1555.833333,33.342063
1567.833333,33.342063
1579.833333,34.34184
1591.833333,33.342063
1603.833333,33.342063
1615.833333,33.342063
1627.833333,33.342063
1639.833333,33.342063
1651.833333,33.342063
1663.833333,34.34184
1675.833333,34.34184
1687.833333,34.34184
1699.833333,34.34184
1711.833333,33.342063
1723.833333,33.342063
1735.833333,33.342063
1747.833333,33.342063
1759.833333,34.34184
1771.833333,33.342063
1783.833333,33.342063
1795.833333,33.342063
1807.833333,33.342063
1819.833333,33.342063
1831.833333,33.342063
1843.833333,33.342063
1855.833333,33.342063
1867.833333,33.342063
1879.833333,33.342063
1891.833333,33.342063
1903.833333,33.342063
1915.833333,33.342063
1927.833333,33.342063
1939.833333,33.342063
1951.833333,33.342063
1963.833333,33.342063
1975.833333,33.342063
1987.833333,33.342063
1999.833333,33.342063
2011.833333,33.342063
2023.833333,33.342063
2035.833333,33.342063
2047.833333,33.342063
2059.833333,33.342063
2071.833333,33.342063
2083.833333,33.342063
2095.833333,33.342063
2107.833333,33.342063
2119.833333,33.342063
2131.833333,34.34184
2143.833333,34.34184
2155.833333,34.34184
2167.833333,34.34184
2179.833333,34.34184
2191.833333,34.34184
2203.833333,36.341395
2215.833333,36.341395
2227.833333,33.342063
2239.833333,33.342063
2251.833333,33.342063
2263.833333,33.342063
2275.833333,33.342063
2287.833333,33.342063
2299.833333,33.342063
2311.833333,33.342063
2323.833333,33.342063
2335.833333,33.342063
2347.833333,33.342063
2359.833333,33.342063
2371.833333,33.342063
2383.833333,33.342063
2395.833333,33.342063
2407.833333,33.342063
2419.833333,33.342063
2431.833333,33.342063
2443.833333,33.342063
2455.833333,33.342063
2467.833333,33.342063
2479.833333,33.342063
2491.833333,33.342063
2503.833333,33.342063
2515.833333,33.342063
2527.833333,33.342063
2539.833333,33.342063
2551.833333,33.342063
2563.833333,33.342063
2575.833333,33.342063
2587.833333,33.342063
2599.833333,33.342063
2611.833333,33.342063
2623.833333,33.342063
2635.833333,33.342063
2647.833333,33.342063
2659.833333,33.342063
2671.833333,33.342063
2683.833333,33.342063
2695.833333,33.342063
2707.833333,33.342063
2719.833333,33.342063
2731.833333,33.342063
2743.833333,33.342063
2755.833333,33.342063
2767.833333,33.342063
2779.833333,33.342063
2791.833333,33.342063
2803.833333,33.342063
2815.833333,34.34184
2827.833333,33.342063
2839.833333,33.342063
2851.833333,33.342063
2863.833333,33.342063
2875.833333,33.342063
2887.833333,33.342063
2899.833333,33.342063
2911.833333,33.342063
2923.833333,33.342063
2935.833333,33.342063
2947.833333,33.342063
2959.833333,33.342063
2971.833333,33.342063
2983.833333,33.342063
2995.833333,33.342063
3007.833333,33.342063
3019.833333,33.342063
3031.833333,33.342063
3043.833333,33.342063
3055.833333,33.342063
3067.833333,33.342063
3079.833333,34.34184
3091.833333,34.34184
3103.833333,34.34184
3115.833333,33.342063
3127.833333,33.342063
3139.833333,33.342063
3151.833333,33.342063
3163.833333,34.34184
3175.833333,34.34184
3187.833333,34.34184
3199.833333,33.342063
3211.833333,34.34184
3223.833333,34.34184
3235.833333,34.34184
3247.833333,34.34184
3259.833333,34.34184
3271.833333,34.34184
3283.833333,34.34184
3295.833333,34.34184
3307.833333,34.34184
3319.833333,34.34184
3331.833333,34.34184
3343.833333,34.34184
3355.833333,34.34184
3366.083333,34.34184
3379.833333,33.342063
3391.833333,32.341317
3403.833333,31.34154
3412.833333,31.34154
3427.833333,32.341317
3439.833333,32.341317
3451.833333,32.341317
3463.833333,32.341317
3475.833333,32.341317
3487.833333,32.341317
3499.833333,31.34154
3511.833333,32.341317
3523.833333,32.341317
3535.833333,32.341317
3547.833333,32.341317
3559.833333,32.341317
3571.833333,32.341317
3581.833333,32.341317
3595.833333,32.341317
3607.833333,32.341317
3619.833333,32.341317
3631.833333,32.341317
3643.833333,32.341317
3655.833333,32.341317
3667.833333,32.341317
3679.833333,32.341317
3691.833333,32.341317
3703.833333,32.341317
3715.833333,31.34154
3727.833333,31.34154
3739.833333,31.34154
3751.833333,31.34154
3763.833333,31.34154
3775.833333,31.34154
3787.833333,31.34154
3799.833333,31.34154
3811.833333,31.34154
3823.833333,31.34154
3835.833333,32.341317
3847.833333,32.341317
3859.833333,32.341317
3871.833333,32.341317
3883.833333,32.341317
3895.833333,32.341317
3907.833333,32.341317
3919.833333,32.341317
3931.833333,31.34154
3943.833333,31.34154
3955.833333,31.34154
3967.833333,31.34154
3979.833333,31.34154
3991.833333,31.34154
4003.833333,31.34154
4015.833333,31.34154
4027.833333,31.34154
4039.833333,31.34154
4051.833333,31.34154
4063.833333,31.34154
4075.833333,31.34154
4087.833333,31.34154
4099.833333,31.34154
4111.833333,31.34154
4123.833333,31.34154
4135.833333,31.34154
4147.833333,31.34154
4159.833333,31.34154
4171.833333,31.34154
