time,pressure
0.0,251.270525
0.249722,251.280387
0.499722,251.280387
0.749722,251.300111
0.999722,251.319836
1.249444,251.290249
1.499444,251.319836
1.749444,251.339561
1.999167,251.349423
2.249167,251.329698
2.499167,251.645291
2.749167,252.237028
2.998889,252.394824
3.248889,252.582207
3.498889,252.513171
3.748611,252.611794
3.923889,252.740004
3.925278,252.740004
4.008611,250.668926
4.091944,249.159997
4.175278,247.729967
4.258611,246.74374
4.341944,245.875859
4.425278,245.106602
4.508611,244.357069
4.591667,243.479326
4.675,242.808691
4.758333,242.177506
4.841667,241.566044
4.925,240.806649
5.008333,240.254362
5.091667,239.662625
5.175,239.1202
5.258333,238.479152
5.341667,237.966314
5.425,237.4732
5.508056,236.99981
5.591389,236.417936
5.674722,235.983996
5.758056,235.540194
5.841389,235.145702
5.924722,234.721625
6.008056,234.208786
6.091389,233.824157
6.174722,233.429666
6.258056,233.074624
6.341111,232.561786
6.424444,232.236331
6.507778,231.871427
6.591111,231.545972
6.674444,231.141618
6.757778,230.826025
6.841111,230.549882
6.924444,230.263876
7.007778,229.898971
7.091111,229.63269
7.174167,229.366408
7.2575,229.129714
7.340833,228.794396
7.424167,228.537977
7.5075,228.29142
7.590833,228.015277
7.674167,227.748995
7.7575,227.482714
7.840833,227.246019
7.924167,226.979737
8.0075,226.77263
8.090556,226.486624
8.173889,226.240067
8.257222,225.983648
8.340556,225.77654
8.423889,225.451085
8.507222,225.234115
8.590556,225.007282
8.673889,224.810037
8.757222,224.504306
8.840556,224.287336
8.923611,224.09009
9.006944,223.882983
9.090278,223.616701
9.173611,223.429318
9.256944,223.212348
9.340278,223.015102
9.423611,222.798132
9.506944,222.551575
9.590278,222.374054
9.673611,222.186671
9.756944,221.969701
9.84,221.752731
9.923333,221.565348
10.006667,221.338515
10.09,221.200443
10.173333,221.042647
10.256667,220.825677
10.34,220.618569
10.423333,220.460773
10.506667,220.283252
10.59,220.086006
10.673056,219.947934
10.756389,219.721102
10.839722,219.543581
10.923056,219.405509
11.006389,219.23785
11.089722,219.089916
11.173056,218.892671
11.256389,218.744737
11.339722,218.58694
11.423056,218.399557
11.506111,218.24176
11.589444,218.074102
11.672778,217.926168
11.756111,217.738784
11.839444,217.630299
11.922778,217.452778
12.006111,217.275257
12.089444,217.176635
12.172778,216.999114
12.256111,216.851179
12.339444,216.703245
12.4225,216.584898
12.505833,216.456688
12.589167,216.259443
12.6725,216.131233
12.755833,215.973437
12.839167,215.81564
12.9225,215.667706
13.005833,215.539497
13.089167,215.411287
13.1725,215.302802
13.255556,215.125281
13.338889,215.016796
13.422222,214.878724
13.505556,214.750515
13.588889,214.60258
13.672222,214.494095
13.755556,214.326437
13.838889,214.247538
13.922222,214.070017
14.005556,213.971395
14.088611,213.823461
14.171944,213.685389
14.255278,213.557179
14.338611,213.409245
14.421944,213.290898
14.505278,213.182413
14.588611,213.064065
14.671944,212.925993
14.755278,212.827371
14.838611,212.659712
14.921944,212.580814
15.005,212.452604
15.088333,212.324395
15.171667,212.225772
15.255,212.077838
15.338333,211.929903
15.421667,211.811556
15.505,211.703071
15.588333,211.614311
15.671667,211.456514
15.755,211.357891
15.838056,211.21982
15.921389,211.101472
16.004722,210.9634
16.088056,210.854915
16.171389,210.726706
16.254722,210.608358
16.338056,210.490011
16.421389,210.361801
16.504722,210.263179
16.588056,210.154694
16.671389,209.977173
16.754444,209.908137
16.837778,209.789789
16.921111,209.720754
17.004444,209.582682
17.087778,209.474197
17.171111,209.355849
17.254444,209.247364
17.337778,209.148741
17.421111,209.030394
17.504444,208.941634
17.5875,208.862735
17.670833,208.724664
17.754167,208.616179
17.8375,208.547143
17.920833,208.428795
18.004167,208.330173
18.0875,208.23155
18.170833,208.10334
18.254167,208.054029
18.3375,207.925819
18.420556,207.837059
18.503889,207.718711
18.587222,207.629951
18.670556,207.511604
18.753889,207.403119
18.837222,207.334083
18.920556,207.225598
19.003889,207.146699
19.087222,207.038214
19.170556,206.949454
19.253889,206.831106
19.336944,206.752208
19.420278,206.633861
19.503611,206.525376
19.586944,206.45634
19.670278,206.32813
19.753611,206.23937
19.836944,206.150609
19.920278,206.071711
20.003611,205.973088
20.086944,205.864603
20.17,205.736394
20.253333,205.667358
20.336667,205.58846
20.42,205.479975
20.503333,205.37149
20.586667,205.312316
20.67,205.213693
20.753333,205.095346
20.836667,205.036172
20.92,204.947412
21.003333,204.838927
21.086389,204.760028
21.169722,204.661406
21.253056,204.602232
21.336389,204.513471
21.419722,204.414849
21.503056,204.316226
21.586389,204.257052
21.669722,204.148567
21.753056,204.040082
21.836389,203.951322
21.919444,203.852699
22.002778,203.773801
22.086111,203.694903
22.169444,203.616004
22.252778,203.546968
22.336111,203.458208
22.419444,203.389172
22.502778,203.270825
22.586111,203.191926
22.669444,203.122891
22.7525,203.024268
22.835833,202.925645
22.919167,202.876334
23.0025,202.757986
23.085833,202.669226
23.169167,202.610052
23.2525,202.491705
23.335833,202.452256
23.419167,202.324046
23.5025,202.294459
23.585833,202.195837
23.668889,202.126801
23.752222,202.03804
23.835556,201.94928
23.918889,201.870381
24.002222,201.82107
24.085556,201.722447
24.168889,201.633687
24.252222,201.564651
24.335556,201.505477
24.418889,201.38713
24.501944,201.308232
24.585278,201.249058
24.668611,201.17016
24.751944,201.101124
24.835278,201.002501
24.918611,200.923603
25.001944,200.874291
25.085278,200.755944
25.168611,200.69677
25.251944,200.637597
25.335278,200.578423
25.418333,200.469938
25.501667,200.400902
25.585,200.351591
25.668333,200.272693
25.751667,200.17407
25.835,200.095172
25.918333,200.026136
26.001667,199.986687
26.085,199.878202
26.168333,199.809166
26.251389,199.720405
26.334722,199.710543
26.418056,199.592196
26.501389,199.542884
26.584722,199.463986
26.668056,199.414675
26.751389,199.335776
26.834722,199.256878
26.918056,199.187842
27.001389,199.118806
27.084444,199.039908
27.167778,198.96101
27.251111,198.921561
27.334444,198.8328
27.417778,198.763764
27.501111,198.684866
27.584444,198.625692
27.667778,198.556656
27.751111,198.497483
27.834444,198.418585
27.917778,198.339686
28.000833,198.290375
28.084167,198.231201
28.1675,198.172028
28.250833,198.102992
28.334167,198.024094
28.4175,197.945195
28.500833,197.886022
28.584167,197.826848
28.6675,197.738088
28.750833,197.688776
28.833889,197.629602
28.917222,197.550704
29.000556,197.501393
29.083889,197.422495
29.167222,197.343596
29.250556,197.284423
29.333889,197.235111
29.417222,197.126626
29.500556,197.116764
29.583889,197.037866
29.667222,196.96883
29.750278,196.889932
29.833611,196.820896
29.916944,196.781447
30.000278,196.722273
30.083611,196.643375
30.166944,196.594063
30.250278,196.505303
30.333611,196.436267
30.416944,196.416542
30.500278,196.327782
30.583333,196.298195
30.666667,196.199572
30.75,196.160123
30.833333,196.110812
30.916667,196.071363
31.0,195.982602
31.083333,195.913566
31.166667,195.874117
31.25,195.805081
31.333333,195.736045
31.416667,195.686734
31.499722,195.607836
31.583056,195.5388
31.666389,195.499351
31.749722,195.450039
31.833056,195.390866
31.916389,195.331692
31.999722,195.272518
32.083056,195.223207
32.166389,195.154171
32.249722,195.134446
32.332778,195.055548
32.416111,195.016099
32.499444,194.956926
32.582778,194.907614
32.666111,194.858303
32.749444,194.789267
32.832778,194.690644
32.916111,194.680782
32.999444,194.601884
33.082778,194.572297
33.166111,194.522985
33.249167,194.493399
33.3325,194.434225
33.415833,194.365189
33.499167,194.315878
33.5825,194.276428
33.665833,194.207393
33.749167,194.148219
33.8325,194.138357
33.915833,194.069321
33.999167,194.000285
34.0825,193.970698
34.165556,193.931249
34.248889,193.862213
34.332222,193.822764
34.415556,193.803039
34.498889,193.724141
34.582222,193.704416
34.665556,193.645243
34.748889,193.605794
34.832222,193.566345
34.915556,193.536758
34.998611,193.487446
35.081944,193.408548
35.165278,193.378961
35.248611,193.319788
35.331944,193.300063
35.415278,193.260614
35.498611,193.231027
35.581944,193.181716
35.665278,193.122542
35.748611,193.083093
35.831944,193.023919
35.915,193.014057
35.998333,192.609704
36.081667,192.234937
36.165,192.126452
36.248333,192.017967
36.331667,191.909482
36.415,191.810859
36.498333,191.751686
36.581667,191.653063
36.665,191.574165
36.748056,191.46568
36.831389,191.386781
36.914722,191.24871
36.998056,191.199398
37.081389,191.090913
37.164722,191.031739
37.248056,190.99229
37.331389,191.061326
37.414722,191.1205
37.498056,191.159949
37.581389,191.20926
37.664444,191.179674
37.747778,191.20926
37.831111,191.228985
37.914444,191.199398
37.997778,191.228985
38.081111,191.199398
38.164444,191.189536
38.247778,191.159949
38.331111,191.150087
38.414444,191.100775
38.497778,191.100775
38.580833,191.041602
38.664167,191.031739
38.7475,190.982428
38.830833,190.933117
38.914167,190.90353
38.9975,190.893668
39.080833,190.854218
39.164167,190.814769
39.2475,190.765458
39.330833,190.765458
39.413889,190.735871
39.497222,190.68656
39.580556,190.676697
39.663889,190.637248
39.747222,190.597799
39.830556,190.509039
39.913889,190.46959
39.997222,190.390691
40.080556,190.380829
40.163889,190.321656
40.247222,190.301931
40.330278,190.272344
40.413611,190.232895
40.496944,190.203308
40.580278,190.213171
40.663611,190.173721
40.746944,190.153997
40.830278,190.134272
40.913611,190.084961
40.996944,190.015925
41.080278,189.937027
41.163611,189.917302
41.246667,189.858129
41.33,189.838404
41.413333,189.77923
41.496667,189.77923
41.58,189.710194
41.663333,189.69047
41.746667,189.651021
41.83,189.621434
41.913333,189.591847
41.996667,189.552398
42.079722,189.542536
42.163056,189.503087
42.246389,189.493224
42.329722,189.443913
42.413056,189.394602
42.496389,189.374877
42.579722,189.295979
42.663056,189.305841
42.746389,189.246667
42.829722,189.207218
42.913056,189.098733
42.996111,189.079009
43.079444,189.029697
43.162778,188.970524
43.246111,188.91135
43.329444,188.881763
43.412778,188.832452
43.496111,188.82259
43.579444,188.82259
43.662778,188.802865
43.746111,188.763416
43.829444,188.763416
43.9125,188.723967
43.995833,188.723967
44.079167,188.674655
44.1625,188.615482
44.245833,188.546446
44.329167,188.457685
44.4125,188.428098
44.495833,188.388649
44.579167,188.359063
44.6625,188.319613
44.745556,188.319613
44.828889,188.309751
44.912222,188.280164
44.995556,188.270302
45.078889,188.240715
45.162222,188.220991
45.245556,188.171679
45.328889,188.151955
45.412222,188.102643
45.495556,188.053332
45.578889,188.023745
45.661944,187.974434
45.745278,187.954709
45.828611,187.895536
45.911944,187.846224
45.995278,187.8265
46.078611,187.806775
46.161944,187.767326
46.245278,187.757464
46.328611,187.737739
46.411944,187.678565
46.495278,187.629254
46.578333,187.579943
46.661667,187.510907
46.745,187.471458
46.828333,187.432009
46.911667,187.412284
46.995,187.422146
47.078333,187.372835
47.161667,187.35311
47.245,187.313661
47.328333,187.284074
47.411389,187.205176
47.494722,187.106553
47.578056,187.086829
47.661389,187.057242
47.744722,187.037517
47.828056,187.057242
47.911389,187.037517
47.994722,187.017793
48.078056,186.968482
48.161389,186.978344
48.244722,186.948757
48.327778,186.899446
48.411111,186.800823
48.494444,186.761374
48.577778,186.771236
48.661111,186.7022
48.744444,186.692338
48.827778,186.633164
48.911111,186.633164
48.994444,186.603577
49.077778,186.564128
49.161111,186.544404
49.244167,186.564128
49.3275,186.514817
49.410833,186.475368
49.494167,186.406332
49.5775,186.366883
49.660833,186.297847
49.744167,186.218948
49.8275,186.209086
49.910833,186.179499
49.994167,186.100601
50.077222,186.120326
50.160556,186.080877
50.243889,186.080877
50.327222,186.05129
50.410556,186.011841
50.493889,186.031565
50.577222,186.021703
50.660556,185.992116
50.743889,185.982254
50.827222,185.913218
50.910556,185.932942
50.993611,185.903356
51.076944,185.873769
51.160278,185.854044
51.243611,185.794871
51.326944,185.745559
51.410278,185.745559
51.493611,185.725835
51.576944,185.646936
51.660278,185.597625
51.743611,185.538451
51.826667,185.469415
51.91,185.420104
51.993333,185.420104
52.076667,185.410242
52.16,185.40038
52.243333,185.390517
52.326667,185.390517
52.41,185.351068
52.493333,185.311619
52.576667,185.282032
52.66,185.252445
52.743056,185.163685
52.826389,185.074924
52.909722,185.025613
52.993056,184.956577
53.076389,184.966439
53.159722,184.917128
53.243056,184.887541
53.326389,184.867817
53.409722,184.867817
53.493056,184.887541
53.576389,184.857954
53.659444,184.828368
53.742778,184.808643
53.826111,184.769194
53.909444,184.719882
53.992778,184.680433
54.076111,184.690296
54.159444,184.640984
54.242778,184.631122
54.326111,184.611397
54.409444,184.591673
54.4925,184.512775
54.575833,184.532499
54.659167,184.483188
54.7425,184.463463
54.825833,184.443739
54.909167,184.394427
54.9925,184.394427
55.075833,184.354978
55.159167,184.325391
55.2425,184.315529
55.325833,184.285942
55.408889,184.236631
55.492222,184.226769
55.575556,184.197182
55.658889,184.167595
55.742222,184.14787
55.825556,184.088697
55.908889,184.05911
55.992222,183.970349
56.075556,183.921038
56.158889,183.881589
56.242222,183.852002
56.325278,183.861864
56.408611,183.861864
56.491944,183.832278
56.575278,183.802691
56.658611,183.773104
56.741944,183.753379
56.825278,183.704068
56.908611,183.62517
56.991944,183.516685
57.075278,183.516685
57.158611,183.516685
57.241667,183.546272
57.325,183.506822
57.408333,183.49696
57.491667,183.526547
57.575,183.270128
57.658333,183.289852
57.741667,183.289852
57.825,183.309577
57.908333,183.289852
57.991667,183.250403
58.074722,183.240541
58.158056,183.230679
58.241389,183.161643
58.324722,183.112331
58.408056,183.082745
58.491389,183.082745
58.574722,183.053158
58.658056,182.993984
58.741389,182.97426
58.824722,182.964397
58.908056,182.93481
58.991111,182.905224
59.074444,182.865774
59.157778,182.865774
59.241111,182.84605
59.324444,182.836188
59.407778,182.777014
59.491111,182.737565
59.574444,182.698116
59.657778,182.698116
59.741111,182.648804
59.824444,182.638942
59.9075,182.609355
59.990833,182.510733
60.074167,182.471283
60.1575,182.451559
60.240833,182.372661
60.324167,182.343074
60.4075,182.343074
60.490833,182.343074
60.574167,182.323349
60.6575,182.313487
60.740833,182.274038
60.823889,182.274038
60.907222,182.254313
60.990556,182.224726
61.073889,182.205002
61.157222,182.126104
61.240556,182.076792
61.323889,181.958445
61.407222,181.93872
61.490556,181.879547
61.573889,181.918996
61.656944,181.869685
61.740278,181.741475
61.823611,181.731613
61.906944,181.731613
61.990278,181.731613
62.073611,181.751337
62.156944,181.761199
62.240278,181.731613
62.323611,181.692164
62.406944,181.702026
62.490278,181.662577
62.573333,181.563954
62.656667,181.455469
62.74,181.376571
62.823333,181.317397
62.906667,181.277948
62.99,181.258223
63.073333,181.297672
63.156667,181.366708
63.24,181.179325
63.323333,181.179325
63.406667,181.208912
63.489722,181.189187
63.573056,181.169463
63.656389,181.060978
63.739722,181.07084
63.823056,181.051116
63.906389,181.051116
63.989722,180.972217
64.073056,180.932768
64.156389,180.735523
64.239722,180.696074
64.323056,180.6369
64.406111,180.627038
64.489444,180.597451
64.572778,180.538277
64.656111,180.50869
64.739444,180.469241
64.822778,180.459379
64.906111,180.459379
64.989444,180.439654
65.072778,180.41993
65.156111,180.400205
65.239167,180.350894
65.3225,180.321307
65.405833,180.29172
65.489167,180.252271
65.5725,180.212822
65.655833,180.193098
65.739167,180.114199
65.8225,180.104337
65.905833,180.07475
65.989167,180.07475
66.0725,180.025439
66.155556,179.98599
66.238889,179.976127
66.322222,179.956403
66.405556,179.867642
66.488889,179.838056
66.572222,179.828193
66.655556,179.759157
66.738889,179.670397
66.822222,179.591499
66.905556,179.55205
66.988889,179.463289
67.071944,179.394253
67.155278,179.29563
67.238611,179.246319
67.321944,179.167421
67.405278,179.118109
67.488611,179.058936
67.571944,179.009624
67.655278,178.970175
67.738611,178.901139
67.821944,178.871552
67.905278,178.812379
67.988333,178.733481
68.071667,178.703894
68.155,178.674307
68.238333,178.615133
68.321667,178.575684
68.405,178.55596
68.488333,178.516511
68.571667,178.477061
68.655,178.42775
68.738333,178.388301
68.821389,178.348852
68.904722,178.289678
68.988056,178.269954
69.071389,178.220642
69.154722,178.181193
69.238056,178.161469
69.321389,178.102295
69.404722,178.043121
69.488056,178.023397
69.571389,177.99381
69.654722,177.924774
69.737778,177.924774
69.821111,177.875463
69.904444,177.816289
69.987778,177.786702
70.071111,177.757115
70.154444,177.727528
70.237778,177.717666
70.321111,177.697942
70.404444,177.628906
70.487778,177.589457
70.571111,177.55987
70.654167,177.550007
70.7375,177.520421
70.820833,177.480971
70.904167,177.451385
70.9875,177.411936
71.070833,177.362624
71.154167,177.323175
71.2375,177.293588
71.320833,177.273864
71.404167,177.224552
71.487222,177.224552
71.570556,177.175241
71.653889,177.12593
71.737222,177.056894
71.820556,177.027307
71.903889,176.99772
71.987222,177.017444
72.070556,176.987858
72.153889,176.987858
72.237222,176.938546
72.320556,176.86951
72.403611,176.800474
72.486944,176.78075
72.570278,176.751163
72.653611,176.691989
72.736944,176.691989
72.820278,176.682127
72.903611,176.682127
72.986944,176.613091
73.070278,176.573642
73.153611,176.544055
73.236944,176.484882
73.32,176.484882
73.403333,176.445432
73.486667,176.43557
73.57,176.405983
73.653333,176.366534
73.736667,176.336947
73.82,176.277774
73.903333,176.258049
73.986667,176.2186
74.07,176.189013
74.153056,176.179151
74.236389,176.169289
74.319722,176.139702
74.403056,176.080528
74.486389,176.021355
74.569722,176.00163
74.653056,175.962181
74.736389,175.932594
74.819722,175.903007
74.903056,175.893145
74.986389,175.843834
75.069444,175.804384
75.152778,175.794522
75.236111,175.764935
75.319444,175.735349
75.402778,175.705762
75.486111,175.646588
75.569444,175.626863
75.652778,175.597277
75.736111,175.577552
75.819444,175.547965
75.902778,175.528241
75.985833,175.469067
76.069167,175.449343
76.1525,175.449343
76.235833,175.429618
76.319167,175.429618
76.4025,175.35072
76.485833,175.321133
76.569167,175.281684
76.6525,175.261959
76.735833,175.22251
76.819167,175.212648
76.902222,175.183061
76.985556,175.143612
77.068889,175.104163
77.152222,175.084438
77.235556,175.074576
77.318889,175.025265
77.402222,174.995678
77.485556,174.956229
77.568889,174.946366
77.652222,174.906917
77.735278,174.897055
77.818611,174.847744
77.901944,174.798432
77.985278,174.78857
78.068611,174.739259
78.151944,174.729396
78.235278,174.699809
78.318611,174.66036
78.401944,174.620911
78.485278,174.620911
78.568611,174.601187
78.651667,174.561738
78.735,174.522289
78.818333,174.522289
78.901667,174.502564
78.985,174.512426
79.068333,174.492702
79.151667,174.512426
79.235,174.522289
79.318333,174.551875
79.401667,174.542013
79.485,174.512426
79.568056,174.532151
79.651389,174.522289
79.734722,174.502564
79.818056,174.482839
79.901389,174.433528
79.984722,174.423666
80.068056,174.364492
80.151389,174.344768
80.234722,174.315181
80.318056,174.285594
80.401111,174.236282
80.484444,174.216558
80.567778,174.186971
80.651111,174.157384
80.734444,174.127797
80.817778,174.078486
80.901111,174.039037
80.984444,173.999588
81.067778,173.979863
81.151111,173.930552
81.234444,173.891103
81.3175,173.871378
81.400833,173.841791
81.484167,173.79248
81.5675,173.772755
81.650833,173.743169
81.734167,173.70372
81.8175,173.693857
81.900833,173.66427
81.984167,173.624821
82.0675,173.624821
82.150833,173.585372
82.233889,173.555785
82.317222,173.545923
82.400556,173.476887
82.483889,173.496612
82.567222,173.4473
82.650556,173.407851
82.733889,173.388127
82.817222,173.35854
82.900556,173.338815
82.983889,173.289504
83.066944,173.269779
83.150278,173.23033
83.233611,173.210606
83.316944,173.200743
83.400278,173.181019
83.483611,173.171157
83.566944,173.151432
83.650278,173.111983
