time,pressure
0.0,675.601896
2.004167,675.602172
4.008333,675.5982
6.0125,675.610784
8.016667,675.612112
10.020833,675.61681
12.025,675.615329
13.408333,675.475323
13.495833,675.332241
13.583333,675.194579
13.720833,675.054507
13.866667,674.916179
13.883333,674.529362
13.891667,674.291524
13.9,674.143013
13.908333,673.995124
13.9375,673.822028
14.120833,673.68062
14.491667,673.543929
15.9375,673.404934
17.941667,673.369028
19.945833,673.319571
21.95,673.31499
23.954167,673.353639
25.958333,673.337634
27.9625,673.305218
29.966667,673.30058
31.970833,673.279546
33.975,673.2724
35.979167,673.242839
37.4875,672.963158
37.5,672.52107
37.504167,672.382299
37.508333,672.207408
37.5125,671.951507
37.516667,671.669337
37.520833,670.986666
37.525,670.523082
37.529167,670.125837
37.533333,669.780037
37.5375,669.550644
37.541667,669.396303
37.545833,669.215773
37.554167,669.071577
37.5625,668.800654
37.570833,668.659676
37.591667,668.388682
37.625,668.197424
37.683333,667.987595
37.754167,667.8455
37.816667,667.681606
37.954167,667.539188
38.1875,667.398142
38.379167,667.220627
38.779167,667.083347
39.370833,666.927557
39.470833,666.643131
39.475,666.413053
39.483333,666.213446
39.491667,665.86221
39.495833,665.598079
39.5,665.448794
39.504167,665.253795
39.508333,665.09344
39.5125,664.630856
39.516667,664.287057
39.525,663.970238
39.529167,663.752345
39.533333,663.604778
39.545833,663.459325
39.554167,663.312774
39.566667,663.127187
39.6,662.889725
39.645833,662.749198
39.720833,662.609375
39.7875,662.460448
39.908333,662.312102
40.066667,662.111931
40.225,661.970685
40.520833,661.832567
40.791667,661.696456
41.175,661.544808
41.654167,661.39874
42.245833,661.248802
42.808333,661.104949
43.283333,660.965268
44.045833,660.828358
44.556667,660.794157
44.558333,660.406924
44.5625,659.52506
44.566667,658.92832
44.570833,658.516791
44.575,658.155776
44.579167,657.566652
44.583333,657.16444
44.5875,656.882906
44.591667,656.606862
44.595833,656.415828
44.604167,656.183553
44.608333,655.985053
44.616667,655.774835
44.633333,655.598206
44.65,655.391943
44.683333,655.194486
44.745833,654.994015
44.825,654.803653
44.895833,654.660471
45.0,654.492264
45.241667,654.355591
46.0625,654.196581
46.341667,654.043374
46.6625,653.905979
47.0625,653.769654
47.433333,653.622969
47.779167,653.480895
48.229167,653.343947
48.666667,653.198813
49.395833,653.05914
49.85,652.919523
50.529167,652.771529
51.266667,652.629323
52.304167,652.769826
52.620833,652.915987
53.175,653.066269
54.104167,653.204649
54.333333,653.346053
55.170833,653.205178
55.4375,653.343127
56.483333,652.870476
56.491667,652.53699
56.495833,652.15761
56.5,651.355718
56.504167,650.738118
56.508333,650.245216
56.5125,649.966113
56.516667,649.369234
56.520833,648.913675
56.525,648.494376
56.529167,648.284787
56.533333,648.03542
56.5375,647.821438
56.545833,647.576628
56.554167,647.379642
56.566667,647.208104
56.575,647.002765
56.6,646.770204
56.625,646.58489
56.658333,646.440846
56.6875,646.303662
56.733333,646.136916
56.804167,645.954363
56.9125,645.788639
57.270833,645.637689
57.770833,645.490502
57.8625,645.332582
57.866667,645.006849
57.870833,644.737133
57.875,644.478648
57.883333,644.026931
57.8875,643.598
57.891667,643.192746
57.895833,643.046433
57.9,642.78188
57.908333,642.426162
57.916667,642.20174
57.925,642.036863
57.945833,641.843651
57.966667,641.705487
58.004167,641.555045
58.083333,641.40657
58.166667,641.248488
58.233333,641.054943
58.245833,640.917922
58.254167,640.718177
58.266667,640.423053
58.283333,640.266284
58.3375,640.110075
58.429167,639.962166
58.525,639.679362
58.529167,639.412911
58.533333,639.243659
58.5375,639.106929
58.541667,638.680605
58.545833,637.528393
58.55,636.828674
58.554167,636.192612
58.558333,635.790513
58.5625,635.372954
58.566667,635.097833
58.570833,634.841318
58.579167,634.589858
58.583333,634.408543
58.591667,634.198092
58.604167,634.021035
58.620833,633.841489
58.6375,633.692464
58.6625,633.5351
58.745833,633.394121
58.770833,633.548391
58.795833,633.753768
58.808333,633.944697
58.829167,634.105993
58.854167,634.285491
58.883333,634.436137
58.8875,634.598037
58.908333,634.745631
58.9375,634.992132
58.9625,635.131811
58.979167,635.322522
59.004167,635.468001
59.0125,635.615782
59.0375,635.792349
59.066667,635.934567
59.079167,636.085019
59.1,636.324918
59.129167,636.528333
59.145833,636.667512
59.166667,636.803678
59.1875,636.972162
59.220833,637.185308
59.279167,637.366326
59.333333,637.505252
59.366667,637.662865
59.4375,637.836226
59.495833,637.990133
59.629167,637.807812
59.633333,637.652664
59.645833,637.399127
59.658333,637.115333
59.6875,636.898299
59.754167,636.757842
59.758333,636.57383
59.775,636.2897
59.779167,636.145782
59.791667,635.963833
59.858333,635.499484
59.8625,635.196875
59.866667,634.909562
59.870833,634.613689
59.875,634.396423
59.883333,634.250221
59.895833,634.109036
59.980556,634.11181
60.016667,634.345549
60.104167,634.540761
60.254167,634.687565
60.3,634.377632
60.304167,634.085448
60.308333,633.798067
60.3125,633.611285
60.316667,633.237242
60.320833,632.929716
60.325,632.543302
60.329167,632.331735
60.333333,632.113127
60.345833,631.898882
60.391667,631.748276
60.4125,631.896725
60.445833,632.103432
60.4875,632.247761
60.579167,632.385656
60.670833,632.1951
60.675,632.007343
60.6875,631.756464
60.704167,631.608726
61.183333,631.417254
61.191667,631.09667
61.2,630.79524
61.204167,629.99402
61.208333,629.566866
61.2125,629.198887
61.216667,628.850924
61.225,628.635129
61.233333,628.490718
61.2375,628.626991
61.248889,628.727086
61.25,628.806906
61.254167,629.095972
61.258333,629.2492
61.2625,629.423685
61.266667,629.619599
61.270833,629.796439
61.275,630.042693
61.283333,630.327042
61.2875,630.614537
61.291667,630.80818
61.3,631.075627
61.308333,631.338505
61.316667,631.500654
61.333333,631.694768
61.345833,631.963206
61.354167,632.109698
61.425,631.971445
61.4625,631.829942
61.495833,631.643017
61.5375,631.443372
61.665278,631.456145
61.695833,631.585872
61.716667,631.273194
61.725,631.157142
61.729167,631.081234
61.733333,630.818108
61.7375,630.577993
61.741667,630.435755
61.75,630.159461
61.758333,629.835472
61.766667,629.584324
61.775,629.418371
61.783333,629.277858
61.791667,629.119443
61.808333,628.897757
61.825,629.069299
61.834722,629.091263
61.8375,629.211188
61.841667,629.378404
61.845833,629.645302
61.854167,629.86034
61.858333,630.088175
61.866667,630.235035
61.870833,630.392492
61.875,630.55213
61.879167,630.710926
61.891667,631.023496
61.908333,631.221418
61.920833,631.453887
61.945833,631.614584
61.983333,631.760185
62.045833,631.903155
62.816667,631.764857
63.066667,631.61556
63.383333,631.47785
63.725,631.341459
64.070833,631.205216
64.233333,631.062922
64.6125,630.911948
64.908333,630.759175
65.329167,630.622558
65.641667,630.482532
65.966667,630.338798
66.379167,630.187365
66.8375,630.050241
67.254167,629.913139
67.670833,629.776585
68.154167,629.639387
68.579167,629.499244
68.970833,629.36304
69.445833,629.226078
69.941667,629.087722
70.479167,628.944409
70.945833,628.808221
71.504167,628.671152
71.9875,628.529508
72.695833,628.392483
73.2875,628.256322
74.05,628.119568
74.6625,627.981655
75.3375,627.844526
75.883333,627.699292
76.6375,627.562214
77.229167,627.418112
77.9375,627.278701
78.616667,627.132552
79.233333,626.986142
80.1375,626.841367
80.933333,626.698275
81.6625,626.56091
82.495833,626.421953
83.3,626.274716
84.216667,626.130511
85.058333,625.992298
85.945833,625.852386
86.816667,625.716227
87.766667,625.576646
88.554167,625.437367
89.429167,625.298914
90.458333,625.159455
91.241667,625.016511
92.35,624.879255
93.108333,624.741648
94.304167,624.605554
95.575,624.448844
96.645833,624.309047
97.816667,624.170877
98.8125,624.031988
99.954167,623.892278
100.9375,623.746179
102.1875,623.602417
103.291667,623.460322
104.458333,623.314187
105.6125,623.172792
106.9,623.029094
108.133333,622.880667
109.354167,622.73951
110.5125,622.599198
111.9125,622.458747
113.325,622.320752
114.616667,622.183452
115.991667,622.040894
117.308333,621.904632
118.654167,621.766103
120.0625,621.625501
120.883333,621.484109
122.295833,621.342079
123.475,621.201837
124.591667,621.062248
126.445833,620.916973
127.6125,620.776707
129.1125,620.639832
130.720833,620.500701
132.35,620.346806
133.725,620.209459
135.4625,620.070396
137.195833,619.930897
138.816667,619.790019
138.8875,619.831713
138.893056,619.794586
140.097222,619.657948
141.968056,619.518692
143.972222,619.411449
145.680556,619.271751
147.555556,619.13528
148.555556,618.996787
150.455556,618.85885
152.359722,618.720397
153.672222,618.583863
155.455556,618.444306
157.397222,618.30645
159.401389,618.229996
160.880556,618.093089
162.884722,617.983818
164.888889,617.867373
166.422222,617.729765
168.426389,617.612842
170.430556,617.49754
172.238889,617.353396
174.243056,617.269797
175.734722,617.125439
177.438889,616.984112
179.443056,616.868083
181.355556,616.731798
183.243056,616.592282
185.247222,616.512379
186.930556,616.365382
188.934722,616.279392
190.938889,616.166207
192.943056,616.057204
194.784722,615.905568
196.480556,616.108207
196.484722,616.294405
196.491111,616.331012
196.493056,616.472797
196.497222,616.76149
196.501389,616.969781
196.505556,617.148665
196.509722,617.298785
196.513889,617.576089
196.522222,617.829156
196.530556,618.128487
196.534722,618.300963
196.547222,618.596821
196.559722,618.822771
196.580556,619.059778
196.601389,619.243718
196.659722,619.475976
196.747222,619.613318
196.813889,619.750846
196.918056,619.894689
197.209722,620.03255
197.622222,620.179991
198.701389,620.31813
200.118056,620.456177
202.122222,620.492486
204.126389,620.532478
206.130556,620.544192
208.134722,620.536459
210.138889,620.526465
212.143056,620.496608
214.147222,620.494235
216.151389,620.438788
218.155556,620.353299
220.159722,620.326962
222.163889,620.276761
224.168056,620.208622
226.172222,620.158454
228.176389,620.094103
230.180556,620.052574
232.184722,619.966644
234.188889,619.917844
236.193056,619.862454
238.197222,619.789521
240.201389,619.714278
242.205556,619.645592
244.209722,619.59323
246.213889,619.502978
248.218056,619.414663
250.222222,619.327397
252.226389,619.261084
254.230556,619.187349
255.047222,619.335978
255.101389,619.494169
255.109722,619.667131
255.122222,619.840761
255.126389,619.992214
255.1375,620.087771
255.138889,620.184718
255.143056,620.455248
255.147222,620.627569
255.151389,620.809968
255.159722,621.272244
255.163889,621.505237
255.168056,621.771004
255.172222,621.970751
255.176389,622.720431
255.180556,623.287578
255.184722,623.658645
255.188889,624.190165
255.193056,625.810622
255.197222,626.933585
255.201389,627.841139
255.205556,628.70514
255.209722,630.537556
255.213889,631.867369
255.218056,632.770654
255.222222,633.707933
255.226389,635.707713
255.230556,637.103886
255.234722,638.31397
255.238889,639.155369
255.243056,639.784405
255.247222,640.394267
255.251389,640.894921
255.255556,641.371795
255.259722,641.728731
255.263889,642.12642
255.272222,642.558039
255.276389,642.739181
255.280556,643.02381
255.284722,643.211953
255.293056,643.547236
255.297222,643.705121
255.301389,643.843476
255.305556,644.066031
255.309722,644.203465
255.318056,644.346677
255.326389,644.58697
255.334722,644.808118
255.343056,644.999647
255.351389,645.141056
255.368056,645.394721
255.384722,645.620623
255.393056,645.783721
255.418056,646.069914
255.430556,646.211622
255.455556,646.359384
255.472222,646.566457
255.497222,646.753538
255.522222,646.966004
255.551389,647.196219
255.584722,647.368244
255.622222,647.58378
255.643056,647.722453
255.676389,647.867979
255.726389,648.004424
255.747222,648.15957
255.788889,648.307201
255.813889,648.452129
255.863889,648.66031
255.934722,648.870686
256.001389,649.014502
256.026389,649.151195
256.093056,649.298458
256.143056,649.458847
256.222222,649.640232
256.318056,649.817921
256.405556,649.973535
256.468056,650.112508
256.551389,650.287823
256.651389,650.427339
256.738889,650.648496
256.855556,650.79786
256.938889,650.935804
257.055556,651.114293
257.159722,651.255734
257.263889,651.417499
257.422222,651.621702
257.534722,651.759578
257.655556,651.917993
257.830556,652.056283
257.951389,652.209872
258.059722,652.346905
258.197222,652.511188
258.397222,652.663811
258.559722,652.800549
258.730556,652.94719
258.884722,653.11684
259.076389,653.260768
259.234722,653.412073
259.468056,653.565498
259.759722,653.709816
259.951389,653.501423
260.009722,653.335957
260.130556,653.575212
260.147222,653.79661
260.213889,653.601585
260.218056,653.463993
260.234722,653.312014
260.243056,653.086113
260.255556,652.914122
260.263889,652.696382
260.268056,652.557551
260.272222,652.362211
260.276389,652.213289
260.284722,651.994179
260.297222,651.851957
260.301389,651.683588
260.306389,651.696237
260.309722,651.394385
260.313889,651.017479
260.318056,650.780526
260.322222,650.495077
260.326389,650.279691
260.330556,649.928407
260.334722,649.704665
260.338889,649.450568
260.347222,649.166569
260.359722,648.861509
260.372222,648.686713
260.388889,648.493297
260.418056,648.272559
260.455556,648.129208
260.501389,647.957196
260.568056,647.814879
260.655556,647.676242
260.705833,647.716321
260.709722,647.523109
260.713889,647.326965
260.718056,647.186939
260.722222,646.955215
260.726389,646.705863
260.730556,646.367041
260.734722,646.06273
260.738889,645.85695
260.747222,645.401006
260.755556,645.185496
260.763889,644.963358
260.768056,644.802807
260.776389,644.634778
260.784722,644.487843
260.813889,644.298329
260.838889,644.147822
260.930556,643.999152
260.959722,643.853714
260.963889,643.657711
260.972222,643.418795
260.976389,643.18275
260.980556,642.931141
260.984722,642.742009
260.988889,642.545717
260.997222,642.231805
261.001389,642.019078
261.009722,641.776842
261.013889,641.503186
261.026389,641.352508
261.034722,641.108195
261.047222,640.912403
261.063889,640.758725
261.101389,640.512543
261.255556,640.709731
261.337778,640.65608
261.355556,640.565732
261.393056,640.772042
261.405556,640.983935
261.418056,641.204455
261.438889,641.369164
261.568056,641.543143
261.747222,641.679312
261.909722,641.463878
261.913889,641.219041
261.918056,641.077405
261.924167,641.059118
261.926389,640.775387
261.930556,640.23871
261.934722,639.947412
261.938889,639.747625
261.943056,639.488622
261.947222,639.256889
261.951389,639.078688
261.955556,638.888968
261.963889,638.516666
261.972222,638.328324
261.984722,638.15377
261.988889,638.008785
262.013889,637.774481
262.021389,637.793384
262.026389,637.362809
262.030556,637.20329
262.034722,637.05528
262.038889,636.879398
262.043056,636.603149
262.047222,636.227796
262.051389,635.956709
262.055556,635.723219
262.059722,635.473353
262.063889,635.260135
262.068056,635.097416
262.072222,634.875247
262.080556,634.566133
262.088889,634.355356
262.097222,634.126267
262.109722,633.921981
262.130556,633.71191
262.147222,633.533194
262.176389,633.378335
262.209722,633.240657
262.243056,633.067181
262.305556,632.873762
262.384722,632.733517
262.443056,632.593197
262.547222,632.435384
262.672222,632.278952
262.809722,632.115021
262.963889,631.95334
263.134722,631.80575
263.363889,631.637797
263.547222,631.437238
263.5575,631.413879
263.559722,631.207618
263.563889,630.818273
263.568056,630.58851
263.572222,630.426758
263.576389,630.156343
263.580556,629.893819
263.588889,629.535361
263.593056,629.385921
263.597222,629.145497
263.605556,628.956308
263.613889,628.658385
263.622222,628.495974
263.630556,628.328641
263.643056,628.164856
263.663889,627.958176
263.701389,627.82045
263.722222,627.661988
263.780556,627.477712
263.838889,627.338267
263.905556,627.175911
263.980556,626.904739
263.988889,626.722462
263.993333,626.716919
263.997222,626.420696
264.001389,626.107495
264.005556,625.853803
264.009722,625.658312
264.013889,625.382045
264.018056,625.192732
264.022222,624.944615
264.030556,624.776349
264.034722,624.524091
264.038889,624.370074
264.047222,624.170385
264.055556,624.022901
264.063889,623.885752
264.076389,623.646617
264.101389,623.395339
264.138889,623.198629
264.168056,623.054654
264.218056,622.887055
264.284722,622.703675
264.359722,622.537517
264.451389,622.359361
264.568056,622.217973
264.659722,622.07849
264.738889,621.941099
264.963889,621.801445
265.226389,621.618137
265.580556,621.467204
265.818056,621.322605
266.205556,621.184756
266.563889,621.047832
266.930556,620.906035
267.393056,620.766898
267.772222,620.622218
268.418056,620.481194
269.059722,620.340446
269.680556,620.204182
270.097222,620.059596
270.918056,619.913878
271.697222,619.766548
272.572222,619.629332
273.186944,619.516264
273.188889,621.931703
273.193056,626.807725
273.197222,630.349532
273.201389,633.028073
273.205556,634.947853
273.209722,636.525723
273.213889,637.86271
273.218056,638.915751
273.222222,639.648669
273.226389,640.469638
273.230556,640.974558
273.234722,641.450528
273.238889,641.900511
273.243056,642.24232
273.247222,642.61289
273.251389,642.90492
273.255556,643.211423
273.259722,643.479211
273.263889,643.632257
273.268056,643.914084
273.276389,644.248441
273.280556,644.408766
273.288889,644.72887
273.293056,644.869142
273.305556,645.140956
273.309722,645.323368
273.318056,645.545954
273.330556,645.809574
273.343056,646.050639
273.355556,646.19304
273.368056,646.43671
273.384722,646.654485
273.401389,646.857583
273.413889,647.016026
273.434722,647.243497
273.451389,647.444069
273.484722,647.687497
273.501389,647.839293
273.526389,648.011968
273.547222,648.202385
273.584722,648.345178
273.593056,648.48594
273.638889,648.715575
273.676389,648.899349
273.713889,649.05379
273.755556,649.198709
273.801389,649.396495
273.851389,649.6095
273.901389,649.762451
273.943056,649.903884
274.013889,650.060804
274.063889,650.197175
274.130556,650.336066
274.176389,650.473569
274.234722,650.653379
274.347222,650.899665
274.443056,651.07048
274.522222,651.224157
274.638889,651.397596
274.722222,651.539863
274.822222,651.684435
274.905556,651.846237
275.026389,651.982771
275.118056,652.119938
275.238889,652.298716
275.376389,652.448856
275.534722,652.592962
275.613889,652.754955
275.772222,652.891437
275.922222,653.042737
276.063889,653.183068
276.197222,653.323927
276.305556,653.471773
276.501389,653.613118
276.701389,653.785222
276.897222,653.948271
277.143056,654.085286
277.309722,654.236372
277.555556,654.382233
277.776389,654.500004
277.781944,654.513796
277.977778,654.65142
278.106944,654.787965
278.381944,654.933678
278.681944,655.077327
278.940278,655.214223
279.227778,655.376439
279.598611,655.590062
279.973611,655.731763
280.286111,655.869047
280.573611,656.007194
280.936111,656.143343
281.256944,656.284906
281.640278,656.422794
281.940278,656.56142
282.381944,656.698906
282.756944,656.838671
283.186111,656.97763
283.661111,657.13739
284.123611,657.275426
284.656944,657.415003
285.127778,657.554913
285.631944,657.697104
286.227778,657.851733
286.827778,657.988165
287.398611,658.130076
288.073611,658.279226
288.769444,658.415929
289.436111,658.552883
290.090278,658.692669
290.798611,658.82924
291.544444,658.965973
292.190278,659.103939
293.073611,659.247397
293.990278,659.408462
294.923611,659.546522
295.815278,659.693614
296.881944,659.831225
297.736111,659.96739
298.773611,660.107273
299.877778,660.25167
300.781944,660.395237
302.248611,660.531355
303.273611,660.690837
304.661111,660.827378
305.919444,660.967284
307.169444,661.111398
308.502778,661.262431
310.111111,661.400576
311.494444,661.536904
312.902778,661.682464
314.536111,661.827505
316.236111,661.970061
317.961111,662.120083
319.944444,662.258831
321.590278,662.398398
323.548611,662.538353
324.831944,662.324879
324.848611,662.111965
324.881944,661.962491
324.977778,661.824136
325.215278,661.678136
325.252778,661.421411
325.256944,661.202609
325.261111,660.960159
325.265278,660.7692
325.273611,660.619069
325.281944,660.333212
325.298611,660.131365
325.323611,659.985917
325.411111,659.848647
325.590278,659.69894
325.786111,659.554846
325.873611,659.147985
325.877778,658.933135
325.881944,658.761299
325.886111,658.562424
