time,pressure
0.0,107.456088
0.001389,107.456088
0.001667,107.456088
0.035,107.368983
0.068333,107.310912
0.101667,107.310912
0.135,107.252842
0.168333,107.165737
0.201667,107.117345
0.235,107.020561
0.268333,106.933455
0.301667,106.826993
0.335,106.710852
0.368333,106.60439
0.401389,106.497928
0.434722,106.401144
0.468056,106.294682
0.501389,106.217255
0.534722,106.120471
0.568056,106.023687
0.601389,105.955938
0.634722,105.859154
0.668056,105.772049
0.701389,105.675265
0.734722,105.58816
0.768056,105.510732
0.801389,105.413949
0.834722,105.336522
0.868056,105.259094
0.901389,105.162311
0.934722,105.075205
0.968056,105.007456
0.981111,104.959064
0.986111,104.968743
1.019444,104.900994
1.052778,104.823567
1.086111,104.755818
1.119167,104.649356
1.1525,104.591286
1.185833,104.523537
1.219167,104.44611
1.2525,104.397718
1.285833,104.329969
1.319167,104.242864
1.3525,104.165437
1.385833,104.097688
1.419167,104.049296
1.4525,103.981547
1.485833,103.90412
1.519167,103.836371
1.5525,103.768623
1.585833,103.681517
1.619167,103.623447
1.6525,103.555698
1.685833,103.507306
1.719167,103.439558
1.7525,103.381487
1.785833,103.30406
1.819167,103.24599
1.8525,103.178241
1.885556,103.129849
1.918889,103.052422
1.952222,103.013709
1.985556,102.936281
2.018889,102.868533
2.052222,102.810462
2.085556,102.762071
2.118889,102.713679
2.152222,102.636251
2.185556,102.58786
2.218889,102.529789
2.252222,102.471719
2.278611,102.423327
2.311944,102.374935
2.345278,102.316865
2.378611,102.268473
2.411944,102.200724
2.445278,102.132975
2.478611,102.084583
2.511944,102.026513
2.545278,101.9878
2.578611,101.920051
2.611944,101.891016
2.645,101.813589
2.678333,101.765197
2.711667,101.707126
2.745,101.658734
2.778333,101.581307
2.811667,101.552272
2.845,101.494202
2.878333,101.436131
2.911667,101.38774
2.945,101.339348
2.978333,101.300634
3.011667,101.242564
3.045,101.213529
3.078333,101.136101
3.111667,101.097388
3.145,101.029639
3.178333,101.010282
3.211667,100.952212
3.245,100.90382
3.278333,100.865107
3.311667,100.807036
3.345,100.768323
3.378056,100.729609
3.411389,100.671539
3.444722,100.613469
3.478056,100.565077
3.511389,100.526363
3.544722,100.497328
3.578056,100.448936
3.611389,100.410222
3.644722,100.342474
3.678056,100.30376
3.711389,100.265047
3.744722,100.216655
3.778056,100.158584
3.811389,100.119871
3.844722,100.0618
3.878056,100.013409
3.911389,99.984373
3.944722,99.935981
3.9625,99.916625
3.966944,99.916625
4.000278,99.868233
4.033611,99.829519
4.066944,99.771449
4.100278,99.732735
4.133333,99.674665
4.166667,99.626273
4.2,99.58756
4.233333,99.558524
4.266667,99.500454
4.3,99.481097
4.333333,99.432705
4.366667,99.384313
4.4,99.335921
4.433333,99.297208
4.466667,99.268173
4.5,99.219781
4.533333,99.200424
4.566667,99.142354
4.6,99.084283
4.633333,99.035891
4.666667,98.997178
4.7,98.948786
4.733333,98.929429
4.766667,98.881037
4.8,98.832645
4.833333,98.793932
4.866389,98.74554
4.899722,98.726183
4.933056,98.648756
4.966389,98.619721
4.999722,98.581007
5.033056,98.551972
5.066389,98.50358
5.099722,98.464867
5.133056,98.416475
5.166389,98.397118
5.199722,98.348726
5.233056,98.310012
5.266389,98.26162
5.299722,98.232585
5.333056,98.193872
5.366389,98.155158
5.399722,98.116445
5.433056,98.068053
5.466389,98.019661
5.499722,97.980947
5.533056,97.922877
5.566389,97.913199
5.599444,97.864807
5.632778,97.826093
5.666111,97.797058
5.699444,97.758344
5.732778,97.719631
5.766111,97.690596
5.799444,97.642204
5.832778,97.60349
5.866111,97.564777
5.899444,97.535741
5.932778,97.497028
5.966111,97.448636
5.999444,97.429279
6.032778,97.390566
6.0375,97.390566
6.046944,97.371209
6.080278,97.342174
6.113611,97.313139
6.146944,97.264747
6.180278,97.235711
6.213611,97.206676
6.246944,97.158284
6.280278,97.119571
6.313611,97.071179
6.346667,97.042144
6.38,97.00343
6.413333,96.974395
6.446667,96.926003
6.48,96.896968
6.513333,96.858254
6.546667,96.829219
6.58,96.790506
6.613333,96.771149
6.646667,96.722757
6.68,96.684043
6.713333,96.64533
6.746667,96.625973
6.78,96.558224
6.813333,96.500154
6.846667,96.480797
6.88,96.422727
6.913333,96.374335
6.946667,96.335621
6.98,96.296908
7.013333,96.267873
7.046667,96.229159
7.079722,96.180767
7.113056,96.132375
7.146389,96.10334
7.179722,96.074305
7.213056,96.054948
7.246389,96.025913
7.279722,95.987199
7.313056,95.929129
7.346389,95.900094
7.379722,95.851702
7.413056,95.822667
7.446389,95.793632
7.479722,95.764597
7.513056,95.725883
7.546389,95.696848
7.579722,95.648456
7.613056,95.619421
7.646389,95.580707
7.679722,95.551672
7.713056,95.541994
7.746389,95.50328
7.779722,95.483923
7.813056,95.454888
7.846111,95.396818
7.879444,95.387139
7.912778,95.329069
7.946111,95.309712
7.979444,95.280677
8.012778,95.241964
8.046111,95.232285
8.079444,95.183893
8.112778,95.154858
8.146111,95.125823
8.179444,95.077431
8.212778,95.058074
8.246111,95.038718
8.279444,95.019361
8.312778,94.96129
8.346111,94.941934
8.379444,94.922577
8.412778,94.874185
8.440833,94.854828
8.455,94.84515
8.488333,94.835471
8.521667,94.777401
8.554722,94.748366
8.588056,94.729009
8.621389,94.690296
8.654722,94.641904
8.688056,94.622547
8.721389,94.583833
8.754722,94.54512
8.788056,94.535441
8.821389,94.496728
8.854722,94.477371
8.888056,94.438658
8.921389,94.428979
8.954722,94.399944
8.988056,94.370909
9.021389,94.341874
9.054722,94.322517
9.088056,94.30316
9.121389,94.274125
9.154722,94.235411
9.188056,94.216055
9.221389,94.187019
9.254722,94.157984
9.288056,94.138628
9.321111,94.090236
9.354444,94.0612
9.387778,94.041844
9.421111,94.032165
9.454444,93.993452
9.487778,93.964417
9.521111,93.935381
9.554444,93.896668
9.587778,93.886989
9.621111,93.867633
9.654444,93.819241
9.687778,93.799884
9.721111,93.770849
9.754444,93.741814
9.787778,93.693422
9.821111,93.654708
9.854444,93.635351
9.887778,93.615995
9.921111,93.577281
9.954444,93.557924
9.987778,93.519211
10.021111,93.509532
10.054167,93.480497
10.0875,93.441784
10.120833,93.422427
10.154167,93.40307
10.1875,93.364357
10.220833,93.354678
10.254167,93.325643
10.2875,93.286929
10.320833,93.257894
10.354167,93.219181
10.3875,93.209502
10.420833,93.151432
10.454167,93.132075
10.4875,93.112718
10.520833,93.083683
10.554167,93.074005
10.5875,93.064327
10.620833,93.015935
10.654167,92.996578
10.6875,92.986899
10.720833,92.948186
10.754167,92.928829
10.787222,92.870759
10.820556,92.851402
10.853889,92.80301
10.887222,92.783653
10.920556,92.725583
10.953889,92.706226
10.987222,92.657834
11.020556,92.609442
11.053889,92.590086
11.087222,92.580407
11.120556,92.541694
11.153889,92.522337
11.187222,92.493302
11.220556,92.454588
11.253889,92.435231
11.287222,92.415875
11.320556,92.377161
11.353889,92.348126
11.376389,92.338448
11.380833,92.338448
11.385278,92.338448
11.390278,92.319091
11.398889,92.328769
11.403889,92.309412
11.437222,92.280377
11.470556,92.26102
11.503889,92.231985
11.536944,92.20295
11.570278,92.173915
11.603611,92.14488
11.636944,92.135201
11.670278,92.086809
11.703611,92.057774
11.736944,92.038418
11.770278,92.028739
11.803611,91.999704
11.836944,91.980347
11.870278,91.941634
11.903611,91.922277
11.936944,91.90292
11.970278,91.864207
12.003611,91.84485
12.036944,91.825493
12.070278,91.806136
12.103611,91.767423
12.136944,91.767423
12.170278,91.738387
12.203611,91.719031
12.236944,91.699674
12.27,91.66096
12.303333,91.631925
12.336667,91.612568
12.37,91.573855
12.403333,91.554498
12.436667,91.535141
12.47,91.496428
12.503333,91.486749
12.536667,91.467393
12.57,91.438357
12.603333,91.419001
12.636667,91.419001
12.67,91.370609
12.703333,91.351252
12.736667,91.322217
12.77,91.293182
12.803333,91.273825
12.836667,91.235111
12.87,91.215755
12.903333,91.186719
12.936667,91.157684
12.97,91.128649
13.003333,91.089936
13.036389,91.070579
13.069722,91.031865
13.103056,91.00283
13.136389,90.983473
13.169722,90.973795
13.203056,90.935081
13.236389,90.915725
13.269722,90.886689
13.303056,90.877011
13.336389,90.828619
13.369722,90.809262
13.403056,90.789906
13.436389,90.751192
13.469722,90.722157
13.503056,90.7028
13.536389,90.683443
13.569722,90.64473
13.603056,90.635051
13.636389,90.596338
13.669722,90.576981
13.703056,90.547946
13.736389,90.528589
13.769444,90.489876
13.802778,90.480197
13.836111,90.441484
13.869444,90.431805
13.903056,90.40277
13.936389,90.383413
13.969444,90.373735
14.002778,90.3447
14.036111,90.305986
14.069444,90.296308
14.102778,90.276951
14.136111,90.257594
14.169444,90.218881
14.202778,90.189846
14.236111,90.170489
14.269444,90.141454
14.302778,90.122097
14.336111,90.10274
14.369444,90.083383
14.403056,90.064027
14.436389,90.064027
14.469722,90.034991
14.503056,90.025313
14.536111,89.996278
14.569444,89.967243
14.602778,89.947886
14.636111,89.918851
14.669444,89.899494
14.702778,89.870459
14.736111,89.841424
14.769444,89.831745
14.802778,89.80271
14.803611,89.80271
14.8125,89.793032
14.845833,89.783353
14.879167,89.763997
14.9125,89.725283
14.945833,89.715605
14.979167,89.696248
15.0125,89.647856
15.045833,89.628499
15.079167,89.618821
15.1125,89.599464
15.145833,89.580107
15.179167,89.56075
15.2125,89.531715
15.245833,89.522037
15.278889,89.473645
15.312222,89.463967
15.345556,89.454288
15.378889,89.434931
15.412222,89.396218
15.445556,89.386539
15.478889,89.357504
15.512222,89.338147
15.545556,89.328469
15.578889,89.289756
15.612222,89.280077
15.645556,89.251042
15.678889,89.231685
15.712222,89.212328
15.745556,89.20265
15.778889,89.192972
15.812222,89.154258
15.845556,89.134901
15.878889,89.115545
15.912222,89.086509
15.945556,89.076831
15.978889,89.047796
16.011944,89.028439
16.045278,89.018761
16.078611,88.980047
16.111944,88.96069
16.145278,88.941334
16.178611,88.931655
16.211944,88.90262
16.245278,88.883263
16.278611,88.854228
16.311944,88.854228
16.345278,88.825193
16.378611,88.815515
16.411944,88.796158
16.445278,88.767123
16.478611,88.747766
16.511944,88.728409
16.545278,88.709052
16.578611,88.670339
16.611944,88.641304
16.645278,88.631625
16.678611,88.592912
16.711944,88.583233
16.745278,88.563876
16.778333,88.54452
16.811667,88.515485
16.845,88.515485
16.878333,88.496128
16.911667,88.467093
16.945,88.438057
16.978333,88.409022
17.011667,88.409022
17.045,88.389666
17.078333,88.370309
17.111667,88.350952
17.145,88.321917
17.178333,88.292882
17.211667,88.283203
17.245,88.254168
17.278333,88.234811
17.311667,88.225133
17.345,88.196098
17.378333,88.196098
17.411667,88.138027
17.445,88.138027
17.478333,88.108992
17.511389,88.099314
17.544722,88.079957
17.578056,88.050922
17.611389,88.031565
17.644722,88.00253
17.678056,87.992852
17.711389,87.963816
17.744722,87.94446
17.778056,87.925103
17.811389,87.905746
17.844722,87.886389
17.878056,87.876711
17.911389,87.857354
17.944722,87.857354
17.978056,87.828319
18.011389,87.808962
18.044722,87.779927
18.078056,87.779927
18.111389,87.750892
18.144722,87.741214
18.178056,87.692822
18.211389,87.673465
18.244722,87.64443
18.277778,87.615395
18.311111,87.596038
18.344444,87.576681
18.377778,87.547646
18.411111,87.528289
18.444444,87.508932
18.477778,87.499254
18.511111,87.479897
18.544444,87.450862
18.577778,87.421827
18.611111,87.40247
18.644444,87.383113
18.677778,87.3444
18.711111,87.325043
18.744444,87.305686
18.777778,87.286329
18.804167,87.266973
18.813056,87.266973
18.817778,87.257294
18.851111,87.237937
18.884444,87.218581
18.917778,87.199224
18.951111,87.199224
18.984444,87.170189
19.0175,87.141154
19.050833,87.112118
19.084167,87.092762
19.1175,87.083083
19.150833,87.04437
19.184167,87.025013
19.2175,87.015335
19.250833,87.005656
19.284167,86.986299
19.3175,86.928229
19.350833,86.928229
19.384167,86.937907
19.4175,86.899194
19.450833,86.889516
19.484167,86.850802
19.5175,86.841124
19.550833,86.812088
19.584167,86.792732
19.6175,86.783053
19.650833,86.754018
19.684167,86.763696
19.7175,86.74434
19.750556,86.724983
19.783889,86.695948
19.817222,86.695948
19.850556,86.676591
19.883889,86.647556
19.917222,86.618521
19.950556,86.628199
19.983889,86.608842
20.017222,86.589486
20.050556,86.579807
20.083889,86.570129
20.117222,86.550772
20.150556,86.521737
20.183889,86.50238
20.217222,86.50238
20.250556,86.483023
20.283889,86.463666
20.317222,86.463666
20.350556,86.434631
20.383889,86.415275
20.417222,86.395918
20.450556,86.395918
20.483889,86.376561
20.516944,86.357204
20.550278,86.347526
20.583611,86.337847
20.616944,86.299134
20.650278,86.270099
20.683611,86.26042
20.716944,86.250742
20.750278,86.241064
20.783611,86.221707
20.816944,86.212028
20.850278,86.192672
20.883611,86.173315
20.916944,86.173315
20.950278,86.14428
20.983611,86.115245
21.016944,86.105566
21.050278,86.086209
21.083611,86.086209
21.116944,86.057174
21.150278,86.047496
21.183611,86.028139
21.216944,86.018461
21.25,85.999104
21.283333,85.970069
21.316667,85.970069
21.35,85.950712
21.383333,85.921677
21.416667,85.911998
21.45,85.892642
21.483333,85.882963
21.516667,85.863606
21.55,85.834571
21.583333,85.834571
21.616667,85.805536
21.65,85.786179
21.683333,85.776501
21.716667,85.757144
21.75,85.737787
21.783333,85.718431
21.816667,85.728109
21.85,85.689396
21.883333,85.679717
21.916667,85.670039
21.95,85.66036
21.983056,85.621647
22.016389,85.60229
22.049722,85.592612
22.083056,85.563576
22.116389,85.553898
22.149722,85.553898
22.183056,85.54422
22.216389,85.524863
22.249722,85.505506
22.283056,85.486149
22.316389,85.486149
22.349722,85.457114
22.383056,85.437757
22.416389,85.399044
22.449722,85.399044
22.483056,85.399044
22.516389,85.370009
22.549722,85.350652
22.583056,85.340974
22.616389,85.331295
22.649722,85.321617
22.683056,85.292582
22.716111,85.292582
22.749444,85.273225
22.782778,85.273225
22.816111,85.263546
22.849444,85.234511
22.882778,85.24419
22.916111,85.215155
22.949444,85.195798
22.982778,85.176441
23.016111,85.186119
23.049444,85.147406
23.082778,85.137727
23.116111,85.118371
23.149444,85.089335
23.182778,85.0603
23.216111,85.0603
23.249444,85.050622
23.282778,85.040944
23.316111,85.031265
23.349444,85.011908
23.382778,85.011908
23.416111,84.982873
23.449444,84.973195
23.4825,84.934481
23.515833,84.953838
23.549167,84.924803
23.5825,84.915125
23.615833,84.895768
23.649167,84.876411
23.6825,84.866733
23.715833,84.857054
23.749167,84.837697
23.7825,84.828019
23.815833,84.76027
23.846111,84.750592
23.851111,84.740914
23.884444,84.7022
23.917778,84.692522
23.951111,84.673165
23.984444,84.64413
24.017778,84.605416
24.051111,84.595738
24.084444,84.595738
24.117778,84.566703
24.151111,84.547346
24.184444,84.527989
24.2175,84.527989
24.250833,84.518311
24.284167,84.508632
24.3175,84.489275
24.350833,84.46024
24.384167,84.450562
24.4175,84.440884
24.450833,84.431205
24.484167,84.411848
24.5175,84.40217
24.550833,84.373135
24.584167,84.353778
24.6175,84.353778
24.650833,84.324743
24.684167,84.305386
24.7175,84.295708
24.750833,84.295708
24.784167,84.286029
24.8175,84.266673
24.850833,84.266673
24.884167,84.227959
24.9175,84.208602
24.950556,84.218281
24.983889,84.218281
25.017222,84.189245
25.050556,84.179567
25.083889,84.16021
25.117222,84.140854
25.150556,84.121497
25.183889,84.121497
25.217222,84.092462
25.250556,84.053748
25.283889,84.053748
25.317222,84.053748
25.350556,84.024713
25.383889,84.024713
25.417222,84.015035
25.450556,83.995678
25.483889,83.985999
25.517222,83.947286
25.550556,83.937607
25.583889,83.918251
25.617222,83.918251
25.650556,83.889215
25.683611,83.86018
25.716944,83.869859
25.750278,83.86018
25.783611,83.821467
25.816944,83.811788
25.850278,83.792432
25.883611,83.782753
25.916944,83.773075
25.950278,83.763396
25.983611,83.763396
26.016944,83.724683
26.050278,83.734361
26.083611,83.705326
26.116944,83.705326
26.150278,83.695648
26.183611,83.676291
26.216944,83.656934
26.250278,83.637577
26.283611,83.627899
26.316944,83.608542
26.350278,83.589185
26.383611,83.569829
26.416667,83.579507
26.45,83.569829
26.483333,83.56015
26.516667,83.531115
26.55,83.521437
26.583333,83.511758
26.616667,83.492402
26.65,83.473045
26.683333,83.463366
26.716667,83.44401
26.75,83.44401
26.783333,83.434331
26.816667,83.414975
26.85,83.405296
26.883333,83.376261
26.916667,83.376261
26.95,83.356904
26.983333,83.337547
27.016667,83.327869
27.05,83.318191
27.083333,83.289155
27.116667,83.279477
27.149722,83.26012
27.183056,83.250442
27.216389,83.250442
27.249722,83.211728
27.283056,83.211728
27.316389,83.192372
27.349722,83.173015
27.383056,83.163336
27.416389,83.14398
27.449722,83.134301
27.483056,83.124623
27.516389,83.105266
27.549722,83.095588
27.583056,83.085909
27.616389,83.066553
27.649722,83.056874
27.683056,83.047196
27.716389,83.037517
27.749722,83.027839
27.783056,83.008482
27.816389,82.969769
27.849722,82.969769
27.882778,82.940734
27.916111,82.96009
27.949444,82.931055
27.982778,82.90202
28.016111,82.882663
28.049444,82.90202
28.082778,82.872985
28.116111,82.863306
28.149444,82.853628
28.182778,82.834271
28.216111,82.824593
28.249444,82.814915
28.282778,82.795558
28.316111,82.795558
28.349444,82.766523
28.382778,82.747166
28.416111,82.747166
28.449444,82.727809
28.482778,82.718131
28.516111,82.708452
28.549444,82.689095
28.582778,82.669739
28.616111,82.66006
28.649167,82.640704
28.6825,82.621347
28.715833,82.621347
28.749167,82.621347
28.7825,82.592312
28.815833,82.563276
28.849167,82.563276
28.8825,82.553598
28.915833,82.54392
28.949167,82.514885
28.9825,82.524563
29.015833,82.505206
29.049167,82.485849
29.0825,82.466493
29.115833,82.447136
29.149167,82.456814
29.1825,82.437457
29.215833,82.418101
29.249167,82.398744
29.2825,82.379387
29.315833,82.379387
29.349167,82.36003
29.382222,82.340674
29.415556,82.321317
29.448889,82.30196
29.482222,82.292282
29.515556,82.292282
29.548889,82.272925
29.582222,82.263246
29.615556,82.24389
29.644722,82.224533
29.653611,82.234211
29.657778,82.234211
29.662778,82.214854
29.671944,82.224533
29.676667,82.234211
29.69,82.214854
29.695,82.205176
29.712778,82.224533
29.717778,82.205176
29.751111,82.195498
29.784444,82.185819
29.817778,82.156784
29.851111,82.127749
29.884444,82.127749
29.917778,82.098714
29.951111,82.079357
29.984444,82.069679
30.017778,82.06
30.051111,82.040644
30.084444,82.011608
30.1175,82.011608
30.150833,82.00193
30.184167,82.00193
30.2175,81.992252
30.250833,81.972895
30.284167,81.963216
30.3175,81.94386
30.350833,81.934181
30.384167,81.905146
30.4175,81.895468
30.450833,81.885789
30.484167,81.885789
30.5175,81.856754
30.550833,81.856754
30.584167,81.837397
30.6175,81.818041
30.650833,81.818041
30.684167,81.779327
30.7175,81.779327
30.750833,81.75997
30.784167,81.750292
30.8175,81.779327
30.850556,81.789005
30.883889,81.769649
30.917222,81.779327
30.950556,81.769649
30.983889,81.75997
31.017222,81.730935
31.050556,81.730935
31.083889,81.7019
31.117222,81.7019
31.150556,81.682543
31.183889,81.663186
31.217222,81.653508
31.250556,81.624473
31.283889,81.614794
31.317222,81.576081
31.350556,81.576081
31.383889,81.566403
31.417222,81.547046
31.450556,81.527689
31.483889,81.508332
31.517222,81.498654
31.550556,81.479297
31.583611,81.469619
31.616944,81.45994
31.650278,81.450262
31.683611,81.421227
31.716944,81.411548
31.750278,81.40187
31.783611,81.382513
31.816944,81.363156
31.850278,81.353478
31.883611,81.3438
31.916944,81.324443
31.950278,81.314764
31.983611,81.295408
32.016944,81.285729
32.050278,81.285729
32.083611,81.285729
32.116944,81.266373
32.150278,81.266373
32.183611,81.227659
32.216944,81.227659
32.250278,81.208302
32.283611,81.208302
32.316667,81.179267
32.35,81.179267
32.383333,81.15991
32.416667,81.140554
32.45,81.140554
32.483333,81.130875
32.516667,81.111518
32.55,81.092162
32.583333,81.082483
32.616667,81.063126
32.65,81.063126
32.683333,81.04377
32.716667,81.024413
32.75,81.014734
32.783333,81.005056
32.816667,80.985699
32.85,80.976021
32.883333,80.956664
32.916667,80.956664
32.95,80.946986
32.983333,80.927629
33.016667,80.927629
33.05,80.917951
33.083056,80.898594
33.116389,80.888915
33.149722,80.869559
33.183056,80.85988
33.216389,80.85988
33.249722,80.840524
33.283056,80.830845
33.316389,80.840524
33.349722,80.830845
33.383056,80.811488
33.416389,80.80181
33.449722,80.792132
33.483056,80.782453
33.516389,80.74374
33.549722,80.753418
33.583056,80.714704
33.616389,80.714704
