time,pressure
0.0,488.204087
0.25,460.203545
0.5,448.20428
0.75,439.204348
1.0,435.204271
1.25,435.204271
1.5,433.203748
1.75,432.203971
2.0,430.204416
2.5,427.204116
3.0,424.203816
3.25,421.703888
3.5,419.704334
4.0,416.103974
4.5,413.204329
5.0,409.504281
5.5,408.204474
6.0,403.203651
6.5,399.204542
7.0,396.204242
7.5,394.203719
8.0,391.204387
8.5,388.204087
9.0,385.203787
9.5,383.104545
10.5,379.204155
11.5,373.703927
12.5,369.804505
13.5,365.004025
14.5,361.104603
15.5,356.40381
16.5,352.4047
17.5,348.50431
18.5,344.704576
19.5,341.904618
20.5,338.103915
21.5,335.204271
22.5,332.304626
22.533333,331.303881
23.5,328.503923
24.5,326.604056
25.5,324.604501
26.5,322.704634
27.5,320.804766
28.5,319.804021
29.5,318.804244
30.5,318.804244
31.5,318.804244
31.566667,318.804244
32.5,318.804244
33.5,317.904154
34.5,317.904154
35.5,317.904154
36.483333,317.904154
36.733333,317.904154
36.816667,317.904154
37.5,316.904376
38.5,316.904376
39.5,316.904376
40.5,316.904376
41.5,315.904599
42.5,315.904599
43.5,315.004509
44.5,315.004509
45.5,315.004509
46.5,314.004731
46.566667,314.004731
47.5,314.004731
48.5,312.304239
49.5,313.003986
50.066667,307.104041
50.5,307.104041
51.5,307.104041
51.566667,307.104041
52.5,307.104041
53.5,307.104041
54.5,307.104041
54.566667,307.104041
55.5,306.404294
56.5,306.404294
56.566667,306.404294
57.5,305.404516
57.966667,300.204319
58.5,300.204319
59.5,300.204319
60.5,300.204319
61.5,299.403916
62.5,299.403916
63.5,299.403916
64.5,298.404139
64.65,298.404139
65.5,298.404139
65.65,293.104254
66.5,293.104254
67.5,293.104254
68.5,293.104254
69.5,293.104254
69.65,293.104254
70.5,292.304819
71.5,292.304819
72.5,291.304074
72.65,291.304074
73.5,290.373981
74.5,284.904725
75.5,284.404352
76.5,284.404352
77.5,284.404352
77.65,284.404352
78.5,283.404575
79.5,283.404575
80.5,282.404797
80.65,282.404797
81.5,281.404052
82.5,280.503962
83.5,280.503962
84.5,275.10439
85.5,275.10439
86.5,275.10439
87.5,274.2043
88.5,274.2043
89.5,273.30421
90.5,273.30421
91.5,272.304432
92.5,271.404342
92.65,271.404342
93.5,266.504175
94.5,266.504175
95.5,266.504175
96.5,264.944019
97.5,264.994346
97.65,264.994346
98.5,264.994346
99.5,264.004247
100.5,263.00447
101.5,263.00447
102.5,262.10438
102.65,262.10438
103.5,261.104603
104.5,255.604375
105.5,255.604375
106.5,255.604375
107.5,255.604375
108.5,255.604375
109.5,254.704285
110.5,253.704508
111.5,253.704508
112.5,252.70473
113.5,251.80464
114.5,251.80464
115.5,250.804863
116.5,244.904918
117.5,244.904918
118.5,244.904918
119.5,244.904918
120.5,244.404546
121.5,244.404546
122.5,243.404768
123.5,242.404991
124.5,241.504901
125.5,241.504901
126.5,240.504155
127.5,239.504378
128.5,233.904463
129.5,233.904463
130.5,233.904463
131.5,233.904463
132.5,233.405058
133.5,233.405058
134.5,232.504968
135.5,232.504968
136.5,231.504223
137.5,230.504446
138.5,230.504446
139.5,229.604356
140.5,228.604578
141.5,224.114775
142.5,224.104128
143.5,224.104128
144.5,224.104128
145.5,223.304694
146.5,223.304694
147.5,222.404604
148.5,222.404604
149.5,221.504514
150.5,221.504514
151.5,220.504736
152.5,219.504959
153.5,219.504959
154.5,213.204329
155.5,213.204329
156.5,213.204329
157.5,213.204329
158.5,213.204329
159.5,212.604269
160.5,212.604269
161.5,211.604491
162.5,211.604491
163.5,210.604714
164.5,210.604714
165.5,209.704624
166.5,208.704847
167.5,208.704847
168.5,207.705069
169.5,206.704324
170.5,206.704324
171.5,205.704546
172.5,204.804456
173.5,204.804456
174.5,203.904366
175.5,203.904366
176.5,202.904589
177.5,195.504494
178.5,195.504494
179.5,195.504494
180.5,195.504494
181.5,195.504494
182.5,195.504494
183.5,195.504494
184.5,195.504494
185.5,195.504494
186.5,194.705059
187.5,194.705059
188.5,193.704314
189.5,193.704314
190.5,192.804224
191.5,192.804224
192.5,191.905102
193.5,191.905102
194.5,185.105067
195.5,186.305187
196.5,186.305187
197.5,186.305187
198.5,186.305187
199.5,186.305187
200.5,186.305187
201.5,186.305187
202.5,185.204755
203.5,185.204755
204.5,185.204755
205.5,185.204755
206.5,185.204755
207.5,185.204755
208.5,185.204755
209.5,185.204755
210.5,180.304587
211.5,180.304587
212.5,181.40502
213.5,181.40502
214.5,182.404797
215.5,182.404797
216.5,183.404575
217.5,184.404352
217.75,184.404352
218.5,185.405097
219.5,187.304965
219.6,188.404429
219.766667,190.404952
219.933333,199.404884
220.266667,212.104864
220.433333,217.005031
220.6,220.304394
220.766667,221.304171
220.95,224.204784
221.183333,227.204116
221.5,243.404768
221.733333,249.004683
222.0,248.004906
222.783333,244.904918
223.0,250.804863
223.15,256.504465
223.316667,259.004393
223.6,260.804573
223.683333,261.734666
223.783333,264.464939
223.85,267.03455
223.966667,269.114436
224.016667,270.564258
226.733333,271.714051
226.783333,270.704595
227.783333,267.80495
228.283333,266.804205
228.783333,264.80465
229.283333,263.00447
229.783333,261.904037
230.783333,258.50402
231.783333,256.204435
232.783333,254.404255
233.783333,252.4047
234.783333,250.504833
235.783333,249.604743
236.783333,247.804563
237.783333,246.804786
238.783333,245.704353
239.783333,244.804263
240.783333,243.904173
241.783333,242.904396
242.0,242.97408
242.966667,244.04451
243.333333,244.994927
243.35,244.994927
243.783333,244.994927
244.283333,244.994927
244.783333,244.804263
245.783333,244.904918
246.783333,244.904918
247.783333,243.804486
248.783333,242.904396
249.783333,242.904396
250.783333,242.904396
251.783333,242.904396
252.783333,242.904396
253.783333,242.904396
254.783333,242.904396
255.783333,242.904396
256.783333,242.904396
257.783333,242.904396
258.783333,241.904618
259.783333,241.904618
260.783333,241.904618
261.783333,241.904618
261.983333,285.204755
262.15,285.204755
263.15,285.204755
264.15,285.204755
265.15,285.204755
266.15,285.204755
267.15,285.204755
267.233333,285.204755
267.466667,313.204329
268.283333,310.204029
269.033333,305.903921
269.283333,305.903921
269.533333,305.903921
269.783333,305.903921
270.283333,305.603891
270.783333,306.904667
271.283333,313.204329
271.783333,312.504581
272.15,318.704556
272.283333,318.704556
272.783333,315.304539
273.283333,319.104274
297.45,320.804766
297.566667,320.804766
297.783333,320.804766
298.316667,305.104486
299.316667,302.803934
300.316667,299.403916
301.316667,297.504049
302.316667,292.604849
303.316667,289.404207
304.316667,288.704459
305.316667,285.804815
306.316667,281.104022
307.316667,275.204077
308.316667,275.70445
309.316667,275.70445
310.316667,274.904047
311.316667,273.00418
312.316667,272.10409
313.316667,271.004625
314.316667,269.104757
315.316667,268.104012
316.316667,267.104235
317.316667,264.004247
318.316667,263.00447
319.316667,262.004693
320.316667,260.3042
321.316667,259.10408
322.316667,257.304868
323.316667,257.104525
324.316667,256.404778
325.316667,254.20488
326.316667,253.00476
327.316667,251.304268
328.316667,249.904773
329.316667,249.4044
330.316667,248.604966
331.316667,247.60422
332.316667,246.604443
333.316667,245.604666
334.316667,244.604888
335.316667,244.604888
336.316667,243.704798
337.316667,243.404768
338.316667,242.404991
339.316667,241.804931
340.316667,241.704275
341.316667,241.704275
342.316667,238.904318
343.316667,236.904763
344.316667,236.004673
345.316667,235.304926
346.316667,235.004896
347.316667,235.004896
348.316667,234.404836
349.316667,234.004151
350.316667,233.105028
351.316667,231.904908
352.316667,231.704566
353.316667,231.104506
354.316667,230.704788
355.316667,230.09505
356.316667,229.204638
357.316667,228.304548
358.316667,228.304548
359.316667,227.304771
360.316667,226.304994
361.316667,226.304994
362.316667,225.404904
363.316667,225.404904
364.316667,224.404158
365.316667,222.404604
366.316667,222.404604
367.316667,222.004886
368.316667,221.504514
369.316667,220.604424
370.316667,220.604424
371.316667,219.904676
372.316667,219.604646
373.316667,218.804244
374.316667,217.704779
375.316667,217.305061
376.316667,216.705001
377.316667,216.404971
378.316667,215.704256
379.316667,214.704479
380.316667,214.804166
381.316667,214.804166
382.316667,214.304761
383.316667,213.804389
384.316667,212.804611
385.316667,212.804611
398.816667,339.004005
399.316667,326.003996
399.816667,322.303948
400.316667,322.303948
400.816667,320.504736
401.316667,318.603901
401.816667,316.604346
402.316667,314.704479
403.316667,310.904744
404.316667,307.204697
405.316667,304.204396
406.316667,304.204396
407.316667,298.204764
408.316667,296.204242
409.316667,294.204687
410.316667,292.204164
411.316667,289.204832
412.316667,287.204309
413.316667,285.204755
414.316667,284.204009
415.316667,283.004857
416.316667,281.104022
417.316667,280.2049
418.316667,278.304065
419.316667,277.304287
420.316667,276.404197
421.316667,275.40442
422.316667,274.604017
423.316667,272.504775
424.316667,270.404565
425.316667,270.504252
426.316667,269.504475
427.316667,268.204667
428.316667,267.604607
429.316667,266.204145
430.316667,264.703995
431.316667,263.704217
432.316667,262.204067
433.316667,261.80435
434.316667,260.804573
435.316667,259.70414
436.316667,258.80405
437.316667,257.904928
438.316667,257.004838
439.316667,256.104748
440.316667,255.10497
441.316667,254.104225
442.316667,253.104448
443.316667,252.204358
444.316667,251.304268
445.316667,250.30449
446.316667,251.20458
447.316667,250.404178
448.316667,250.204803
449.316667,249.4044
450.316667,248.50431
451.316667,248.50431
452.316667,247.404846
453.316667,246.504756
454.316667,246.504756
455.316667,245.504978
456.316667,244.504233
457.316667,244.504233
458.316667,243.604143
459.316667,243.604143
460.316667,242.705021
461.316667,241.804931
462.316667,241.804931
463.316667,240.704498
464.316667,240.704498
465.316667,239.904095
466.316667,239.904095
467.316667,238.804631
468.316667,238.804631
469.316667,237.904541
470.316667,237.404168
471.316667,236.904763
472.316667,236.904763
473.316667,236.004673
474.316667,236.004673
475.316667,236.004673
476.316667,235.004896
477.316667,235.004896
478.233333,235.004896
478.272778,235.004896
478.273056,235.004896
478.75,237.004451
478.9,238.204571
479.233333,239.305003
479.733333,240.404468
480.4,244.304858
480.733333,246.70413
481.233333,249.10437
481.733333,251.104893
482.233333,252.70473
482.566667,311.704179
483.733333,312.703956
484.233333,320.704111
485.233333,303.004276
486.233333,303.103964
487.233333,303.004276
488.233333,302.004499
489.233333,303.103964
490.233333,304.004054
491.233333,305.004799
492.233333,306.004576
493.233333,307.004354
494.233333,308.904221
495.233333,309.654296
496.233333,311.704179
497.233333,312.703956
498.233333,313.704701
499.233333,314.704479
500.233333,315.404226
501.233333,316.604346
502.233333,317.604124
503.233333,318.603901
504.233333,319.503991
505.233333,320.504736
506.233333,321.504514
507.233333,322.404604
508.233333,323.404381
509.233333,324.404158
510.233333,325.403936
511.233333,326.404681
678.233333,329.204638
678.733333,323.204038
679.233333,318.204184
679.733333,313.204329
680.233333,308.204474
680.733333,303.204619
681.233333,297.204019
681.733333,291.204387
682.233333,286.204532
682.733333,279.204155
683.233333,273.204522
684.233333,264.20459
685.233333,256.204435
686.233333,247.204503
687.233333,240.204125
688.233333,233.204716
689.233333,228.204861
690.233333,223.205006
691.233333,217.204406
692.233333,213.204329
693.233333,211.204774
694.233333,208.204474
695.233333,207.204697
696.233333,206.204919
697.233333,206.204919
698.233333,207.204697
699.233333,207.204697
700.233333,207.204697
701.233333,207.204697
702.233333,208.204474
703.233333,208.204474
704.233333,208.204474
705.233333,208.204474
707.233333,208.204474
708.233333,207.204697
709.233333,206.204919
709.983333,205.204174
710.066667,205.204174
710.733333,211.204774
711.233333,211.204774
711.733333,224.204784
712.233333,226.204338
720.233333,270.204222
722.716667,407.203729
723.233333,431.204193
723.733333,437.203825
724.233333,437.203825
724.733333,439.204348
725.233333,415.203884
725.733333,371.204
726.233333,373.204522
726.733333,350.203835
727.233333,350.203835
727.733333,351.20458
728.233333,351.20458
729.233333,351.20458
732.233333,351.20458
733.233333,351.20458
734.233333,351.20458
735.233333,351.20458
736.233333,351.20458
737.233333,351.20458
738.233333,351.20458
739.233333,351.20458
740.233333,351.20458
741.233333,351.20458
742.233333,351.20458
742.65,351.20458
743.233333,352.204358
744.233333,352.204358
745.233333,352.204358
746.233333,352.204358
747.233333,352.204358
748.233333,353.204135
749.233333,354.203913
750.233333,264.20459
751.733333,265.204367
752.233333,266.204145
1112.233333,340.88742
1112.733333,338.887865
1113.233333,336.887342
1113.733333,334.887787
1114.233333,331.887487
1115.233333,328.888155
1115.733333,322.887555
1116.233333,318.887478
1116.733333,316.887923
1117.233333,313.887623
1117.733333,311.888068
1118.233333,310.887323
1119.233333,306.888213
1119.733333,304.887691
1120.233333,303.887913
1120.733333,300.887613
1121.233333,298.888058
1122.233333,294.887981
1123.233333,292.887458
1124.233333,289.888126
1125.233333,286.887826
1126.233333,286.887826
1127.233333,272.888039
1128.233333,267.888184
1129.233333,258.888252
1130.233333,254.888175
1131.233333,253.887429
1132.233333,249.88832
1133.233333,247.887797
1134.233333,244.887497
1135.233333,242.887942
1136.233333,237.888087
1137.233333,234.887787
1138.233333,231.887487
1139.233333,228.888155
1140.233333,224.888078
1141.233333,221.887778
1142.233333,218.888446
1143.233333,215.888145
1144.233333,212.887845
1145.233333,210.888291
1146.233333,207.887991
1147.233333,205.888436
1148.233333,203.887913
1149.233333,200.887613
1150.233333,198.888058
1151.233333,195.887758
1152.233333,193.888204
1153.233333,190.887904
1154.233333,187.888571
1155.233333,185.888049
1156.233333,183.888494
1157.233333,181.887971
1158.233333,180.888194
1159.233333,178.887671
1160.233333,176.888116
1161.233333,174.888562
1162.233333,173.887816
1163.233333,171.888262
1164.233333,170.888484
1165.233333,169.887739
1166.233333,168.887962
1167.233333,166.888407
1168.233333,165.888629
1169.233333,164.887884
1170.233333,162.888329
1171.233333,161.888552
1172.233333,160.887807
1173.233333,159.888029
1174.233333,158.888252
1175.233333,157.888475
1176.233333,156.887729
1177.233333,155.887952
1178.233333,155.887952
1179.233333,154.888175
1180.233333,153.888397
1181.233333,152.88862
1182.233333,151.887874
1183.233333,150.888097
1184.233333,149.88832
1185.233333,148.888542
1186.233333,147.887797
1187.233333,146.88802
1188.233333,145.888242
1189.233333,145.888242
1190.233333,144.888465
1191.233333,143.888687
1192.233333,142.887942
1193.233333,141.888165
1194.233333,140.888387
1195.233333,136.88831
1196.233333,133.88801
1197.233333,132.888233
1198.233333,131.888455
1199.233333,130.888678
1200.233333,129.887933
1200.566667,129.887933
1200.983333,129.887933
1201.233333,133.88801
1202.233333,146.88802
1202.65,147.887797
1203.233333,153.888397
1203.983333,168.887962
1205.233333,168.887962
1206.233333,160.887807
1207.233333,161.888552
1208.233333,161.888552
1209.233333,157.888475
1210.233333,160.887807
1210.983333,148.888542
1212.233333,167.888184
1213.233333,168.887962
1214.233333,165.888629
1215.233333,166.888407
1216.233333,162.888329
1217.233333,158.888252
1218.233333,153.888397
1219.233333,150.888097
1220.233333,146.88802
1221.233333,142.887942
1222.233333,141.888165
1223.233333,135.888533
1224.233333,131.888455
1225.233333,129.887933
1226.233333,126.8886
1227.233333,124.888078
1228.233333,122.888523
1229.233333,121.888746
1230.233333,120.888
1231.233333,119.888223
1232.233333,119.888223
1233.233333,119.888223
1234.233333,118.888446
1235.233333,118.888446
1236.233333,118.888446
1237.233333,118.888446
1238.233333,118.888446
1239.233333,118.888446
1240.233333,118.888446
1241.233333,118.888446
1242.233333,118.888446
1243.233333,118.888446
1244.233333,118.888446
1245.233333,117.888668
1246.233333,117.888668
1247.233333,117.888668
1248.233333,117.888668
1249.233333,116.887923
1250.233333,116.887923
1251.233333,116.887923
1252.233333,117.888668
1253.233333,117.888668
1254.233333,117.888668
1255.233333,116.887923
1256.233333,116.887923
1257.0,116.887923
1257.233333,117.888668
1257.65,122.888523
1257.983333,133.88801
1258.233333,138.887865
1258.316667,141.888165
1258.733333,149.88832
1258.9,152.88862
1259.233333,155.887952
1260.066667,152.88862
1260.233333,151.887874
1260.316667,151.887874
1260.483333,150.888097
1261.233333,147.887797
1262.233333,143.888687
1263.233333,139.88861
1264.233333,135.888533
1265.233333,133.88801
1266.233333,130.888678
1267.233333,128.888155
1268.233333,126.8886
1269.233333,124.888078
1270.233333,122.888523
1271.233333,121.888746
1272.233333,120.888
1273.233333,119.888223
1274.233333,118.888446
1275.233333,118.888446
1276.233333,117.888668
1277.233333,117.888668
1278.233333,116.887923
1279.233333,115.888145
1280.233333,115.888145
1281.233333,115.888145
1291.066667,114.888368
1291.233333,114.888368
1292.066667,114.888368
1292.233333,113.888591
1293.233333,112.887845
1294.233333,111.888068
1295.233333,111.888068
1296.233333,111.888068
1297.233333,110.888291
1298.233333,110.888291
1299.233333,110.888291
1300.233333,109.888513
1301.233333,109.888513
1302.233333,108.888736
1303.233333,108.888736
1304.233333,108.888736
1305.233333,108.888736
1306.233333,108.888736
1307.233333,108.888736
1308.233333,108.888736
1309.233333,108.888736
1310.233333,108.888736
1311.233333,108.888736
1312.233333,108.888736
1313.233333,108.888736
1313.316667,108.888736
1314.233333,108.888736
1315.233333,108.888736
1316.233333,108.888736
1317.233333,108.888736
1318.233333,109.888513
1319.233333,109.888513
1320.233333,109.888513
1321.233333,109.888513
1322.233333,109.888513
1323.233333,109.888513
1324.233333,109.888513
1325.233333,109.888513
1326.233333,109.888513
1327.233333,109.888513
1328.233333,110.888291
1329.233333,110.888291
1330.233333,110.888291
1331.233333,109.888513
1332.233333,109.888513
1333.233333,109.888513
1334.233333,109.888513
1335.233333,109.888513
1336.233333,109.888513
1337.233333,109.888513
1338.233333,109.888513
1339.233333,109.888513
1340.233333,109.888513
1341.233333,109.888513
1342.233333,109.888513
1343.233333,109.888513
1344.233333,109.888513
1345.233333,109.888513
1346.233333,109.888513
1347.233333,109.888513
1348.233333,109.888513
1349.233333,109.888513
1350.233333,109.888513
1351.233333,109.888513
1352.233333,109.888513
1353.233333,109.888513
1354.233333,109.888513
1355.233333,109.888513
1356.233333,109.888513
1357.233333,108.888736
1358.233333,108.888736
1359.233333,108.888736
1360.233333,108.888736
1361.233333,108.888736
1362.233333,108.888736
1363.233333,108.888736
1364.233333,108.888736
1365.233333,108.888736
1366.233333,108.888736
1367.233333,108.888736
1368.233333,108.888736
1369.233333,108.888736
1370.233333,108.888736
1371.233333,108.888736
1372.233333,108.888736
1373.233333,108.888736
1374.233333,108.888736
1375.233333,107.887991
1376.233333,107.887991
1377.233333,107.887991
1378.233333,107.887991
1379.233333,108.888736
1380.233333,107.887991
1381.233333,108.888736
1382.233333,108.888736
1383.233333,108.888736
1384.233333,107.887991
1385.233333,107.887991
1386.233333,107.887991
1387.233333,106.888213
1388.233333,106.888213
1389.233333,106.888213
1390.233333,106.888213
1391.233333,106.888213
1391.9,106.888213
1392.233333,106.888213
1393.233333,106.888213
1394.233333,106.888213
1395.233333,106.888213
1396.233333,106.888213
1397.233333,106.888213
1398.233333,106.888213
1398.733333,106.888213
1399.233333,106.888213
1400.233333,106.888213
1401.233333,106.888213
1402.233333,105.888436
1403.233333,105.888436
1404.233333,105.888436
1405.233333,105.888436
1406.233333,105.888436
1407.233333,105.888436
1408.233333,105.888436
1409.233333,104.888658
1410.233333,104.888658
1411.233333,104.888658
1412.233333,104.888658
1413.233333,104.888658
1414.233333,104.888658
1415.233333,104.888658
1416.233333,104.888658
1417.233333,104.888658
1418.233333,104.888658
1419.233333,104.888658
1420.233333,104.888658
1421.233333,104.888658
1422.233333,104.888658
1423.233333,104.888658
1424.233333,104.888658
1425.233333,104.888658
