time,pressure
0.0,131.095053
10.4,121.095343
23.466667,104.095256
33.316667,96.095101
47.333333,89.095692
57.2,85.095614
79.566667,79.495699
103.566667,75.495622
127.566667,72.395634
151.566667,69.995394
175.566667,68.095527
199.566667,66.396002
223.566667,65.095227
247.566667,63.995762
271.566667,62.995985
295.566667,62.095895
319.566667,61.295492
343.566667,60.395402
367.566667,59.695655
391.566667,59.095595
415.566667,58.595222
439.566667,57.99613
463.566667,57.295415
487.566667,58.295192
511.566667,59.195282
535.566667,57.99613
559.566667,57.09604
583.566667,56.295637
607.566667,59.595967
631.566667,58.895252
655.566667,57.895475
679.566667,57.195727
703.566667,56.595667
727.566667,56.19595
751.566667,55.695577
775.566667,55.29586
799.566667,54.99583
823.566667,54.596113
847.566667,54.296083
871.566667,55.59589
895.566667,55.59589
919.566667,55.095517
943.566667,54.6958
967.566667,52.395247
991.566667,55.695577
1015.566667,55.495235
1039.566667,54.6958
1063.566667,54.39577
1087.566667,56.395325
1111.566667,69.79602
1135.566667,67.595154
1159.566667,64.09545
1183.566667,62.29527
1207.566667,60.895775
1231.566667,59.795342
1255.566667,58.895252
1279.566667,58.095817
1303.566667,57.39607
1327.566667,56.79601
1351.566667,56.395325
1375.566667,55.89592
1399.566667,55.395547
1423.566667,54.99583
1447.566667,54.6958
1471.566667,54.596113
1495.566667,55.59589
1519.566667,57.495757
1543.566667,57.6961
1567.566667,56.79601
1591.566667,56.19595
1615.566667,55.795265
1639.566667,55.395547
1663.566667,55.095517
1687.566667,54.795487
1711.566667,54.596113
1735.566667,54.296083
1759.566667,54.09574
1783.566667,53.996053
1807.566667,53.996053
1831.566667,53.996053
1855.566667,53.895397
1879.566667,53.895397
1903.566667,58.595222
1927.566667,57.295415
1951.566667,56.595667
1975.566667,56.095295
1999.566667,55.795265
2023.566667,55.59589
2047.566667,55.395547
2071.566667,55.29586
2095.566667,55.195205
2119.566667,54.99583
2143.566667,54.896143
2167.566667,54.795487
2191.566667,54.6958
2215.566667,54.6958
2239.566667,54.596113
2263.566667,54.495457
2287.566667,54.495457
2311.566667,54.39577
2335.566667,55.695577
2359.566667,56.995385
2383.566667,56.49598
2407.566667,56.295637
2431.566667,56.095295
2455.566667,56.095295
2479.566667,55.995607
2503.566667,55.89592
2527.566667,55.795265
2551.566667,55.695577
2575.566667,55.695577
2599.566667,55.59589
2623.566667,55.59589
2647.566667,55.59589
2671.566667,55.59589
2695.566667,55.59589
2719.566667,55.495235
2743.566667,56.49598
2767.566667,67.296092
2791.566667,64.795197
2815.566667,62.495612
2839.566667,61.195805
2863.566667,60.395402
2887.566667,59.695655
2911.566667,59.095595
2935.566667,58.695877
2959.566667,58.295192
2983.566667,57.99613
3007.566667,57.6961
3031.566667,57.495757
3055.566667,57.39607
3079.566667,57.295415
3103.566667,54.6958
3127.566667,57.09604
3151.566667,56.895697
3175.566667,56.895697
3199.566667,56.79601
3223.566667,56.695355
3247.566667,56.595667
3271.566667,56.49598
3295.566667,56.395325
3319.566667,56.395325
3343.566667,56.295637
3367.566667,56.19595
3391.566667,56.095295
3415.566667,55.995607
3439.566667,55.89592
3463.566667,55.795265
3487.566667,57.09604
3511.566667,58.895252
3535.566667,58.395847
3559.566667,58.195505
3583.566667,57.99613
3607.566667,57.895475
3631.566667,57.99613
3655.566667,57.895475
3679.566667,57.795787
3703.566667,57.595445
3727.566667,57.495757
3751.566667,57.6961
3775.566667,57.99613
3799.566667,58.395847
3823.566667,58.995907
3847.566667,59.495312
3871.566667,60.196027
3895.566667,60.895775
3919.566667,61.495835
3943.566667,61.795865
3967.566667,61.99524
3991.566667,62.29527
4015.566667,61.795865
4039.566667,61.295492
4111.566667,60.796087
4135.566667,60.995462
4159.566667,61.295492
4183.566667,61.495835
4207.566667,61.69521
4231.566667,64.595822
4255.566667,63.695732
4279.566667,62.695955
4303.566667,62.095895
4327.566667,61.595522
4351.566667,61.195805
4375.566667,60.995462
4399.566667,60.995462
4423.566667,60.895775
4447.566667,60.796087
4471.566667,60.796087
4495.566667,61.795865
4519.566667,62.495612
4543.566667,62.995985
4567.566667,63.49539
4591.566667,63.896075
4615.566667,63.896075
4639.566667,62.795642
4663.566667,62.195582
4687.566667,61.99524
4711.566667,61.69521
4735.566667,61.39518
4759.566667,60.995462
4783.566667,60.895775
4807.566667,60.695432
4831.566667,60.595745
4855.566667,60.496057
4879.566667,60.395402
4903.566667,60.095372
4927.566667,59.895997
4951.566667,59.895997
4975.566667,59.795342
4999.566667,59.795342
5023.566667,59.795342
5047.566667,59.895997
5071.566667,59.695655
5095.566667,60.796087
5119.566667,60.895775
5143.566667,61.195805
5167.566667,61.295492
5191.566667,61.295492
5215.566667,61.195805
5239.566667,61.096117
5263.566667,60.995462
5287.566667,61.096117
5311.566667,63.995762
5335.566667,63.596045
5359.566667,62.795642
5383.566667,62.395925
5407.566667,62.195582
5431.566667,62.195582
5455.566667,62.095895
5479.566667,62.095895
5503.566667,62.095895
5527.566667,62.5953
5551.566667,62.695955
5575.566667,62.795642
5599.566667,62.995985
5623.566667,63.19536
5647.566667,63.296015
5671.566667,63.296015
5695.566667,64.895852
5719.566667,65.095227
5743.566667,64.496135
5767.566667,64.496135
5791.566667,64.595822
5815.566667,64.595822
5839.566667,64.595822
5863.566667,64.595822
5887.566667,64.69551
5911.566667,64.496135
5935.566667,64.595822
5959.566667,64.69551
5983.566667,64.795197
6007.566667,64.795197
6031.566667,64.795197
6055.566667,64.795197
6079.566667,64.895852
6103.566667,64.895852
6127.566667,64.595822
6151.566667,64.196105
6175.566667,64.295792
6199.566667,64.196105
6223.566667,63.896075
6247.566667,63.79542
6271.566667,63.896075
6295.566667,63.79542
6319.566667,63.695732
6343.566667,64.795197
6367.566667,65.495912
6391.566667,65.5956
6415.566667,65.995317
6439.566667,66.595377
6463.566667,66.996062
6487.566667,67.296092
6511.566667,67.39578
6535.566667,67.39578
6559.566667,67.69581
6583.566667,67.69581
6607.566667,67.69581
6631.566667,67.595154
6655.566667,67.595154
6679.566667,67.495467
6703.566667,67.39578
6727.566667,67.296092
6751.566667,67.296092
6775.566667,67.195437
6799.566667,67.195437
6823.566667,67.195437
6847.566667,67.195437
6871.566667,67.296092
6895.566667,67.296092
6919.566667,67.296092
6943.566667,67.296092
6967.566667,67.296092
6991.566667,67.39578
7015.566667,67.795497
7039.566667,67.69581
7063.566667,67.69581
7087.566667,67.69581
7111.566667,67.795497
7135.566667,67.895184
7159.566667,68.095527
7183.566667,68.195214
7207.566667,68.195214
7231.566667,68.29587
7255.566667,68.29587
7279.566667,68.29587
7303.566667,68.29587
7327.566667,68.395557
7351.566667,68.395557
7375.566667,68.395557
7399.566667,69.19596
7423.566667,69.19596
7447.566667,69.095304
7471.566667,69.095304
7495.566667,69.095304
7519.566667,69.395334
7543.566667,69.395334
7567.566667,69.295647
7591.566667,69.19596
7615.566667,69.295647
7639.566667,70.995172
7663.566667,70.195737
7687.566667,69.595677
7711.566667,69.095304
7735.566667,68.5959
7759.566667,68.095527
7783.566667,67.795497
7807.566667,67.39578
7831.566667,67.195437
7855.566667,66.895407
7879.566667,66.595377
7903.566667,66.295347
7927.566667,65.995317
7951.566667,65.795942
7975.566667,65.495912
7999.566667,65.29557
8023.566667,64.99554
8047.566667,64.99554
8071.566667,64.895852
8095.566667,64.496135
8119.566667,64.295792
8143.566667,64.295792
8167.566667,65.995317
8191.566667,65.695287
8215.566667,65.695287
8239.566667,65.695287
8263.566667,65.695287
8287.566667,65.695287
8311.566667,65.695287
8335.566667,65.695287
8359.566667,65.695287
8383.566667,65.695287
8407.566667,65.695287
8431.566667,65.695287
8455.566667,65.695287
8479.566667,65.695287
8503.566667,65.695287
8527.566667,65.695287
8551.566667,65.695287
8575.566667,65.695287
8599.566667,65.695287
8623.566667,65.695287
8647.566667,65.695287
