time,pressure
0.0,84.66087
0.083333,83.81885
0.166667,82.841333
0.25,82.173524
0.333056,81.612178
0.416389,81.215364
0.499722,80.81855
0.583056,80.450771
0.666389,80.015244
0.749722,79.676501
0.833056,79.337757
0.916389,79.008692
0.999722,78.679627
1.083056,78.273134
1.166111,77.963426
1.249444,77.653718
1.332778,77.314974
1.416111,77.014944
1.499444,76.627809
1.582778,76.327779
1.666111,76.027749
1.749444,75.71804
1.832778,75.330905
1.916111,75.021196
1.999444,74.711488
2.0825,74.411458
2.165833,74.072714
2.249167,73.685579
2.3325,73.37587
2.415833,73.046805
2.499167,72.766132
2.5825,72.408032
2.665833,72.020896
2.749167,71.720866
2.8325,71.382123
2.915556,71.082093
2.998889,70.704636
3.082222,70.394927
3.165556,70.065862
3.248889,69.746475
3.332222,69.436767
3.415556,69.010918
3.498889,68.720566
3.582222,68.391501
3.665556,68.062436
3.748611,67.6753
3.831944,67.355914
3.915278,67.036527
3.998611,66.726818
4.081944,66.41711
4.165278,66.029975
4.248611,65.720266
4.331944,65.420236
4.415278,65.120206
4.498611,64.829855
4.581667,64.471754
4.665,64.181403
4.748333,63.891051
4.831667,63.600699
4.915,63.252277
4.998333,62.961926
5.081667,62.671574
5.165,62.410258
5.248333,62.100549
5.331667,61.761806
5.415,61.481133
5.498056,61.200459
5.581389,60.919786
5.664722,60.571364
5.748056,60.300369
5.831389,60.019696
5.914722,59.75838
5.998056,59.487385
6.081389,59.138963
6.164722,58.887325
6.248056,58.61633
6.331111,58.355014
6.414444,58.045305
6.497778,57.764632
6.581111,57.503315
6.664444,57.241999
6.747778,56.990361
6.831111,56.680653
6.914444,56.438693
6.997778,56.206412
7.081111,55.97413
7.164167,55.683779
7.2475,55.451497
7.330833,55.228894
7.414167,54.996613
7.4975,54.667548
7.580833,54.512694
7.664167,54.367518
7.7475,54.212664
7.830833,54.038453
7.914167,53.806172
7.997222,53.622282
8.080556,53.45775
8.163889,53.283539
8.247222,53.109328
8.330556,52.896403
8.413889,52.722192
8.497222,52.577016
8.580556,52.402805
8.663889,52.199559
8.747222,52.035027
8.830556,51.880172
8.913611,51.734997
8.996944,51.589821
9.080278,51.405932
9.163611,51.260756
9.246944,51.125258
9.330278,50.999439
9.413611,50.863942
9.496944,50.689731
9.580278,50.583269
9.663611,50.467128
9.746667,50.350987
9.83,50.205811
9.913333,50.070314
9.996667,49.963852
10.08,49.85739
10.163333,49.741249
10.246667,49.61543
10.33,49.508968
10.413333,49.392827
10.496667,49.296043
10.579722,49.170224
10.663056,49.07344
10.746389,48.976656
10.829722,48.879872
10.913056,48.783089
10.996389,48.666948
11.079722,48.570164
11.163056,48.492737
11.246389,48.395953
11.329722,48.308848
11.412778,48.202385
11.496111,48.105601
11.579444,48.028174
11.662778,47.941069
11.746111,47.834607
11.829444,47.75718
11.912778,47.679752
11.996111,47.602325
12.079444,47.524898
12.162778,47.437793
12.245833,47.360366
12.329167,47.282939
12.4125,47.224868
12.495833,47.128084
12.579167,47.040979
12.6625,46.97323
12.745833,46.905481
12.829167,46.837733
12.9125,46.740949
12.995833,46.682879
13.079167,46.61513
13.162222,46.547381
13.245556,46.479632
13.328889,46.43124
13.412222,46.363492
13.495556,46.305421
13.578889,46.25703
13.662222,46.179602
13.745556,46.121532
13.828889,46.082819
13.912222,46.034427
13.995278,45.976356
14.078611,45.908608
14.161944,45.860216
14.245278,45.811824
14.328611,45.77311
14.411944,45.71504
14.495278,45.686005
14.578611,45.647291
14.661944,45.579542
14.745278,45.550507
14.828333,45.492437
14.911667,45.444045
14.995,45.41501
15.078333,45.376296
15.161667,45.337583
15.245,45.279512
15.328333,45.240799
15.411667,45.221442
15.495,45.182729
15.578333,45.134337
15.661389,45.105301
15.744722,45.085945
15.828056,45.05691
15.911389,45.018196
15.994722,44.969804
16.078056,44.950447
16.161389,44.921412
16.244722,44.882699
16.328056,44.853663
16.411389,44.805271
16.494444,44.766558
16.577778,44.737523
16.661111,44.689131
16.744444,44.660096
16.827778,44.611704
16.911111,44.582669
16.994444,44.543955
17.077778,44.505241
17.161111,44.466528
17.244444,44.437493
17.3275,44.389101
17.410833,44.369744
17.494167,44.33103
17.5775,44.311674
17.660833,44.27296
17.744167,44.243925
17.8275,44.205211
17.910833,44.176176
17.994167,44.127784
18.0775,44.098749
18.160833,44.069714
18.243889,44.031
18.327222,44.001965
18.410556,43.97293
18.493889,43.953573
18.577222,43.934217
18.660556,43.905181
18.743889,43.876146
18.827222,43.837433
18.910556,43.818076
18.993889,43.779362
19.076944,43.750327
19.160278,43.711614
19.243611,43.682579
19.326944,43.653543
19.410278,43.634187
19.493611,43.605151
19.576944,43.576116
19.660278,43.547081
19.743611,43.518046
19.826944,43.479332
19.91,43.440619
19.993333,43.421262
20.076667,43.392227
20.16,43.363192
20.243333,43.324478
20.326667,43.295443
20.41,43.276086
20.493333,43.247051
20.576667,43.218016
20.66,43.188981
20.743056,43.150267
20.826389,43.121232
20.909722,43.101875
20.993056,43.082519
21.076389,43.063162
21.159722,43.034127
21.243056,43.01477
21.326389,42.995413
21.409722,42.985735
21.493056,42.956699
21.576111,42.947021
21.659444,42.917986
21.742778,42.879272
21.826111,42.859916
21.909444,42.850237
21.992778,42.821202
22.076111,42.801845
22.159444,42.782489
22.242778,42.763132
22.326111,42.763132
22.409167,42.743775
22.4925,42.734097
22.575833,42.724418
22.659167,42.724418
22.7425,42.705061
22.825833,42.705061
22.909167,42.685705
22.9925,42.685705
23.075833,42.666348
23.159167,42.656669
23.2425,42.656669
23.325556,42.656669
23.408889,42.656669
23.492222,42.637313
23.575556,42.637313
23.658889,42.627634
23.742222,42.617956
23.825556,42.627634
23.908889,42.627634
23.992222,42.627634
24.075556,42.627634
24.158611,42.617956
24.241944,42.617956
24.325278,42.608278
24.408611,42.608278
24.491944,42.617956
24.575278,42.588921
24.658611,42.588921
24.741944,42.588921
24.825278,42.588921
24.908611,42.588921
24.991667,42.579242
25.075,42.588921
25.158333,42.550207
25.241667,42.501815
25.325,42.434067
25.408333,42.308248
25.491667,42.037253
25.575,41.834007
25.658333,41.669474
25.741667,41.601725
25.825,41.63076
25.908056,41.679152
25.991389,41.640439
26.074722,41.679152
26.158056,41.717866
26.241389,41.563012
26.324722,41.504941
26.408056,41.475906
26.491389,41.437193
26.574722,41.311374
26.658056,41.224268
26.741111,41.137163
26.824444,41.0307
26.907778,40.953273
26.991111,40.943595
27.074444,40.924238
27.157778,40.97263
27.241111,41.0307
27.324444,40.962952
27.407778,40.904881
27.491111,40.856489
27.574167,40.779062
27.6575,40.73067
27.740833,40.691957
27.824167,40.653243
27.9075,40.61453
27.990833,40.643565
28.074167,40.662922
28.1575,40.720992
28.240833,40.779062
28.324167,40.779062
28.407222,40.6726
28.490556,40.585495
28.573889,40.498389
28.657222,40.401605
28.740556,40.285465
28.823889,40.179002
28.907222,40.091897
28.990556,40.07254
29.073889,40.120932
29.157222,40.217716
29.240556,40.256429
29.323611,40.285465
29.406944,40.304821
29.490278,40.343535
29.573611,40.275786
29.656944,40.091897
29.740278,39.946721
29.823611,39.820902
29.906944,39.801545
29.990278,39.820902
30.073611,39.917686
30.156667,40.01447
30.24,40.091897
30.323333,40.149967
30.406667,40.140289
30.49,40.120932
30.573333,40.043505
30.656667,39.898329
30.74,39.753153
30.823333,39.675726
30.906667,39.704761
30.989722,39.782188
31.073056,39.869294
31.156389,39.956399
31.239722,40.043505
31.323056,40.091897
31.406389,40.082218
31.489722,40.07254
31.573056,39.985435
31.656389,39.840259
31.739722,39.77251
31.823056,39.724118
31.906111,39.762832
31.989444,39.83058
32.072778,39.898329
32.156111,39.946721
32.239444,40.004791
32.322778,40.053183
32.406111,40.091897
32.489444,40.120932
32.572778,40.111254
32.656111,39.966078
32.739167,39.849937
32.8225,39.782188
32.905833,39.724118
32.989167,39.724118
33.0725,39.685405
33.155833,39.675726
33.239167,39.656369
33.3225,39.637013
33.405833,39.617656
33.489167,39.617656
33.572222,39.607978
33.655556,39.569264
33.738889,39.520872
33.822222,39.462802
33.905556,39.41441
33.988889,39.395053
34.072222,39.346661
34.155556,39.317626
34.238889,39.298269
34.322222,39.269234
34.405278,39.23052
34.488611,39.17245
34.571944,39.11438
34.655278,39.075666
34.738611,39.036953
34.821944,38.978882
34.905278,38.920812
34.988611,38.891777
35.071944,38.891777
35.155278,38.853063
35.238611,38.824028
35.321667,38.804671
35.405,38.746601
35.488333,38.678852
35.571667,38.63046
35.655,38.591747
35.738333,38.553033
35.821667,38.504641
35.905,38.485285
35.988333,38.465928
36.071667,38.446571
36.154722,38.378822
36.238056,38.340109
36.321389,38.291717
36.404722,38.253003
36.488056,38.223968
36.571389,38.223968
36.654722,38.262682
36.738056,38.301395
36.821389,38.33043
36.904722,38.349787
36.987778,38.349787
37.071111,38.291717
37.154444,38.146541
37.237778,37.982008
37.321111,37.856189
37.404444,37.73037
37.487778,37.604551
37.571111,37.440019
37.654444,37.362592
37.737778,37.37227
37.820833,37.459376
37.904167,37.575516
37.9875,37.604551
38.070833,37.604551
38.154167,37.585195
38.2375,37.449697
38.320833,37.352913
38.404167,37.256129
38.4875,37.188381
38.570833,37.110954
38.654167,37.101275
38.737222,37.139989
38.820556,37.207737
38.903889,37.333557
38.987222,37.420662
39.070556,37.507768
39.153889,37.575516
39.237222,37.517446
39.320556,37.43034
39.403889,37.381948
39.487222,37.294843
39.570278,37.207737
39.653611,37.13031
39.736944,37.110954
39.820278,37.169024
39.903611,37.275486
39.986944,37.401305
40.070278,37.498089
40.153611,37.61423
40.236944,37.720692
40.320278,37.836833
40.403333,37.923938
40.486667,37.943295
40.57,37.856189
40.653333,37.759406
40.736667,37.711014
40.82,37.6723
40.903333,37.681978
40.986667,37.701335
41.07,37.701335
41.153333,37.759406
41.236667,37.856189
41.319722,37.962652
41.403056,38.011044
41.486389,38.098149
41.569722,38.146541
41.653056,38.185255
41.736389,38.127184
41.819722,38.098149
41.903056,38.069114
41.986389,38.049757
42.069722,38.049757
42.152778,38.069114
42.236111,38.156219
42.319444,38.262682
42.402778,38.378822
42.486111,38.465928
42.569444,38.523998
42.652778,38.553033
42.736111,38.582068
42.819444,38.485285
42.902778,38.359466
42.985833,38.27236
43.069167,38.204611
43.1525,38.175576
43.235833,38.185255
43.319167,38.21429
43.4025,38.253003
43.485833,38.27236
43.569167,38.27236
43.6525,38.262682
43.735833,38.146541
43.819167,38.040079
43.902222,37.962652
43.985556,37.885225
44.068889,37.807798
44.152222,37.798119
44.235556,37.846511
44.318889,37.904581
44.402222,37.962652
44.485556,38.001365
44.568889,38.0304
44.652222,38.069114
44.735278,38.001365
44.818611,37.749727
44.901944,37.459376
44.985278,37.275486
45.068611,37.139989
45.151944,37.159346
45.235278,37.285165
45.318611,37.420662
45.401944,37.517446
45.485278,37.498089
45.568333,37.420662
45.651667,37.3142
45.735,37.275486
45.818333,37.285165
45.901667,37.3142
45.985,37.323878
46.068333,37.343235
46.151667,37.333557
46.235,37.352913
46.318333,37.362592
46.401667,37.391627
46.484722,37.517446
46.568056,37.575516
46.651389,37.556159
46.734722,37.517446
46.818056,37.459376
46.901389,37.459376
46.984722,37.469054
47.068056,37.546481
47.151389,37.643265
47.234722,37.652943
47.317778,37.662622
47.401111,37.652943
47.484444,37.643265
47.567778,37.691657
47.651111,37.749727
47.734444,37.749727
47.817778,37.769084
47.901111,37.759406
47.984444,37.749727
48.067778,37.769084
48.150833,37.759406
48.234167,37.769084
48.3175,37.836833
48.400833,37.865868
48.484167,37.836833
48.5675,37.807798
48.650833,37.788441
48.734167,37.807798
48.8175,37.894903
48.900833,37.952973
48.984167,38.020722
49.067222,38.117506
49.150556,38.040079
49.233889,37.962652
49.317222,37.943295
49.400556,37.933617
49.483889,37.923938
49.567222,37.923938
49.650556,37.91426
49.733889,37.923938
49.817222,37.943295
49.900278,37.97233
49.983611,38.049757
50.066944,38.165898
50.150278,38.233647
50.233611,38.233647
50.316944,38.204611
50.400278,38.127184
50.483611,38.0304
50.566944,38.020722
50.650278,38.059436
50.733611,38.156219
50.816667,38.27236
50.9,38.27236
50.983333,38.223968
51.066667,38.223968
51.15,38.233647
51.233333,38.194933
51.316667,38.194933
51.4,38.291717
51.483333,38.243325
51.566667,38.301395
51.649722,38.340109
51.733056,38.253003
51.816389,38.33043
51.899722,38.262682
51.983056,38.311074
52.066389,38.359466
52.149722,38.282038
52.233056,38.33043
52.316389,38.369144
52.399722,38.233647
52.482778,37.827154
52.566111,37.604551
52.649444,37.43034
52.732778,37.343235
52.816111,37.352913
52.899444,37.459376
52.982778,37.604551
53.066111,37.565838
53.149444,37.43034
53.232778,37.343235
53.316111,37.246451
53.399167,37.159346
53.4825,37.13031
53.565833,37.159346
53.649167,37.13031
53.7325,37.101275
53.815833,37.13031
53.899167,37.207737
53.9825,37.323878
54.065833,37.391627
54.149167,37.391627
54.232222,37.333557
54.315556,37.285165
54.398889,37.256129
54.482222,37.227094
54.565556,37.246451
54.648889,37.265808
54.732222,37.285165
54.815556,37.333557
54.898889,37.37227
54.982222,37.43034
55.065278,37.517446
55.148611,37.594873
55.231944,37.604551
55.315278,37.623908
55.398611,37.643265
55.481944,37.643265
55.565278,37.681978
55.648611,37.759406
55.731944,37.856189
55.815278,37.952973
55.898611,37.97233
55.981667,37.982008
56.065,37.991687
56.148333,38.001365
56.231667,38.020722
56.315,38.069114
56.398333,38.088471
56.481667,38.117506
56.565,38.136863
56.648333,38.156219
56.731667,38.165898
56.814722,38.185255
56.898056,38.223968
56.981389,38.253003
57.064722,38.311074
57.148056,38.359466
57.231389,38.359466
57.314722,38.340109
57.398056,38.340109
57.481389,38.407858
57.564722,38.446571
57.647778,38.465928
57.731111,38.417536
57.814444,38.378822
57.897778,38.349787
57.981111,38.291717
58.064444,38.204611
58.147778,38.136863
58.231111,38.098149
58.314444,38.098149
58.397778,38.088471
58.480833,38.040079
58.564167,38.040079
58.6475,38.049757
58.730833,38.059436
58.814167,38.011044
58.8975,38.020722
58.980833,37.952973
59.064167,37.865868
59.1475,37.749727
59.230833,37.711014
59.314167,37.6723
59.397222,37.73037
59.480556,37.836833
59.563889,37.904581
59.647222,37.991687
59.730556,38.069114
59.813889,38.136863
59.897222,38.156219
59.980556,38.165898
60.063889,38.156219
60.147222,38.049757
60.230278,37.962652
60.313611,37.904581
60.396944,37.91426
60.480278,37.962652
60.563611,38.011044
60.646944,38.088471
60.730278,38.136863
60.813611,38.194933
60.896944,38.020722
60.980278,37.604551
61.063333,37.333557
61.146667,37.198059
61.23,37.120632
61.313333,37.285165
61.396667,37.410984
61.48,37.381948
61.563333,37.469054
61.646667,37.575516
61.73,37.652943
61.813333,37.759406
61.896389,37.856189
61.979722,37.894903
62.063056,37.759406
62.146389,37.585195
62.229722,37.488411
62.313056,37.410984
62.396389,37.37227
62.479722,37.381948
62.563056,37.459376
62.646389,37.575516
62.729444,37.643265
62.812778,37.585195
62.896111,37.43034
62.979444,37.275486
63.062778,37.13031
63.146111,37.004491
63.229444,36.936743
63.312778,36.917386
63.396111,36.936743
63.479444,37.043205
63.562778,37.120632
63.645833,37.227094
63.729167,37.275486
63.8125,37.343235
63.895833,37.362592
63.979167,37.43034
64.0625,37.556159
64.145833,37.594873
64.229167,37.565838
64.3125,37.527124
64.395833,37.507768
64.478889,37.488411
64.562222,37.507768
64.645556,37.604551
64.728889,37.720692
64.812222,37.749727
64.895556,37.740049
64.978889,37.798119
65.062222,37.836833
65.145556,37.875546
65.228889,37.875546
65.311944,37.865868
65.395278,37.875546
65.478611,37.894903
65.561944,37.904581
65.645278,37.962652
65.728611,38.049757
65.811944,38.21429
65.895278,38.185255
65.978611,38.165898
66.061944,38.185255
66.145,38.21429
66.228333,38.33043
66.311667,38.349787
66.395,38.340109
66.478333,38.349787
66.561667,38.378822
66.645,38.369144
66.728333,38.378822
66.811667,38.407858
66.895,38.407858
66.978056,38.427214
67.061389,38.417536
67.144722,38.417536
67.228056,38.378822
67.311389,38.369144
67.394722,38.253003
67.478056,38.156219
67.561389,38.098149
67.644722,38.040079
67.728056,38.001365
67.811111,37.97233
67.894444,37.904581
67.977778,37.865868
68.061111,37.836833
68.144444,37.807798
68.227778,37.827154
68.311111,37.846511
68.394444,37.894903
68.477778,37.933617
68.561111,37.875546
68.644444,37.807798
68.7275,37.749727
68.810833,37.681978
68.894167,37.604551
68.9775,37.585195
69.060833,37.527124
69.144167,37.536803
69.2275,37.575516
69.310833,37.594873
69.394167,37.61423
69.4775,37.691657
69.560556,37.807798
69.643889,37.875546
69.727222,37.904581
69.810556,37.952973
69.893889,38.011044
69.977222,38.059436
70.060556,38.069114
70.143889,38.040079
70.227222,38.136863
70.310556,38.117506
70.393611,38.069114
70.476944,38.175576
70.560278,38.233647
70.643611,38.291717
70.726944,38.136863
70.810278,38.069114
70.893611,38.059436
70.976944,38.040079
71.060278,37.991687
71.143611,37.633587
71.226667,37.43034
71.31,37.333557
71.393333,37.294843
71.476667,37.362592
71.56,37.469054
71.643333,37.575516
71.726667,37.585195
71.81,37.536803
71.893333,37.459376
71.976667,37.43034
72.06,37.381948
72.143056,37.440019
72.226389,37.352913
72.309722,37.285165
72.393056,37.217416
72.476389,37.13031
72.559722,37.139989
72.643056,37.188381
72.726389,37.265808
72.809722,37.246451
72.893056,37.188381
72.976111,37.101275
73.059444,37.023848
73.142778,36.946421
73.226111,36.917386
73.309444,36.917386
73.392778,36.927064
73.476111,36.994813
73.559444,37.110954
73.642778,37.246451
73.726111,37.256129
73.809167,37.323878
73.8925,37.410984
73.975833,37.333557
74.059167,37.275486
74.1425,37.265808
74.225833,37.333557
74.309167,37.43034
74.3925,37.507768
74.475833,37.604551
74.559167,37.681978
74.6425,37.817476
74.725556,37.962652
74.808889,38.049757
74.892222,38.069114
74.975556,38.117506
75.058889,38.156219
75.142222,38.204611
75.225556,38.253003
75.308889,38.291717
75.392222,38.340109
75.475556,38.494963
75.558611,38.601425
75.641944,38.775636
75.725278,38.698209
75.808611,38.601425
75.891944,38.640139
75.975278,38.659496
76.058611,38.591747
76.141944,38.494963
76.225278,38.340109
76.308611,38.223968
76.391667,38.136863
76.475,38.088471
76.558333,38.088471
76.641667,38.117506
76.725,38.117506
76.808333,38.175576
76.891667,38.136863
76.975,37.991687
77.058333,37.904581
77.141667,37.827154
77.225,37.769084
77.308056,37.701335
77.391389,37.61423
77.474722,37.527124
77.558056,37.507768
77.641389,37.507768
77.724722,37.527124
77.808056,37.527124
77.891389,37.536803
77.974722,37.556159
78.058056,37.469054
78.141111,37.43034
78.224444,37.401305
78.307778,37.352913
78.391111,37.294843
78.474444,37.285165
78.557778,37.333557
78.641111,37.43034
78.724444,37.507768
78.807778,37.652943
78.891111,37.652943
78.974167,37.556159
79.0575,37.507768
79.140833,37.633587
79.224167,37.61423
79.3075,37.469054
79.390833,37.381948
79.474167,37.304521
79.5575,37.256129
79.640833,37.256129
79.724167,37.285165
79.807222,37.285165
79.890556,37.3142
79.973889,37.275486
80.057222,37.362592
80.140556,37.410984
80.223889,37.449697
80.307222,37.469054
80.390556,37.536803
80.473889,37.565838
80.557222,37.556159
80.640556,37.604551
80.723611,37.652943
80.806944,37.604551
80.890278,37.546481
80.973611,37.536803
81.056944,37.517446
81.140278,37.536803
81.223611,37.536803
81.306944,37.585195
81.390278,37.633587
81.473611,37.73037
81.556667,37.788441
81.64,37.798119
81.723333,37.798119
81.806667,37.856189
81.89,37.865868
81.973333,37.923938
82.056667,37.91426
82.14,37.875546
82.223333,37.846511
82.306667,37.807798
82.389722,37.865868
82.473056,37.904581
82.556389,37.827154
82.639722,37.788441
82.723056,37.73037
82.806389,37.836833
82.889722,37.836833
82.973056,37.846511
83.056389,37.865868
83.139722,37.904581
83.222778,37.982008
83.306111,38.011044
83.389444,38.069114
83.472778,38.185255
83.556111,38.204611
83.639444,38.127184
83.722778,38.127184
83.806111,38.098149
83.889444,38.040079
83.972778,37.962652
84.055833,37.91426
84.139167,37.875546
84.2225,37.933617
84.305833,38.001365
84.389167,38.156219
84.4725,38.233647
84.555833,38.27236
84.639167,38.301395
84.7225,38.291717
84.805833,38.282038
84.888889,38.243325
84.972222,38.262682
85.055556,38.165898
85.138889,38.069114
85.222222,38.001365
85.305556,37.991687
85.388889,37.991687
