time,pressure
0.0,98.919188
0.116667,98.599801
0.65,97.360967
1.2,96.344737
1.783333,95.173652
2.783333,92.163673
3.266667,91.011945
3.75,90.344137
4.2,89.695685
4.733333,88.989162
5.166667,88.398781
5.766667,87.808399
6.216667,87.343837
6.666667,86.888952
7.1,86.463103
7.633333,86.017897
8.116667,85.563013
8.8,85.001667
9.566667,84.411285
10.033333,84.033828
11.116667,83.269236
11.616667,82.901457
12.1,82.553035
12.616667,82.156221
13.6,81.449699
14.116667,81.072242
14.616667,80.733498
15.616667,79.920514
16.033333,79.562413
16.516667,79.165599
17.0,78.797821
17.5,78.38165
18.45,77.675128
18.9,77.336384
19.4,76.978284
19.866667,76.610505
20.3,76.300797
20.733333,75.971732
21.216667,75.632988
22.15,74.955501
23.05,74.336084
23.55,73.987662
25.0,73.010145
25.466667,72.719793
26.566667,72.013271
27.05,71.713241
27.566667,71.403533
27.966667,71.151895
28.483333,70.851865
28.9,70.600227
29.366667,70.319553
29.816667,70.067915
30.233333,69.825956
31.183333,69.283966
31.666667,68.993614
32.15,68.732298
32.766667,68.403233
33.533333,67.996741
34.016667,67.735424
34.516667,67.483786
35.05,67.212791
35.45,67.009545
35.933333,66.757907
36.45,66.506269
36.883333,66.293344
37.433333,66.02235
37.866667,65.819103
38.283333,65.606179
38.733333,65.402933
39.633333,64.967405
40.1,64.754481
40.65,64.512521
41.233333,64.512521
41.516667,64.115707
42.483333,63.689858
42.933333,63.505969
43.416667,63.331758
43.866667,63.118833
44.3,62.944622
45.266667,62.547809
45.733333,62.354241
46.216667,62.160673
46.716667,61.967105
47.2,61.783216
48.25,61.357367
49.283333,60.97991
50.433333,60.534704
50.883333,60.370171
51.366667,60.19596
51.883333,60.021749
53.4,59.47976
53.883333,59.315227
54.366667,59.141016
54.866667,58.976484
56.883333,58.289318
57.583333,58.057037
58.05,57.911861
58.566667,57.757007
59.033333,57.592474
59.566667,57.427942
60.0,57.273088
60.483333,57.127912
60.983333,56.963379
61.516667,56.827882
61.9,56.692384
62.9,56.392354
63.816667,56.111681
64.716667,55.869721
65.2,55.734224
65.233333,55.734224
65.716667,55.569691
66.1,55.453551
66.55,55.327732
66.95,55.201913
67.45,55.056737
68.3,54.814777
69.816667,54.408285
70.266667,54.282466
70.816667,54.127612
71.7,53.953401
72.116667,53.827582
72.566667,53.701763
72.983333,53.585622
73.433333,53.469481
73.833333,53.363019
74.266667,53.256557
75.2,53.004919
76.133333,52.791994
76.583333,52.666175
77.583333,52.424216
78.116667,52.308075
79.15,52.056437
79.733333,51.920939
80.866667,51.649945
81.733333,51.466055
82.166667,51.359593
82.65,51.272487
83.166667,51.146668
83.716667,51.020849
84.183333,50.89503
84.683333,50.807925
85.733333,50.53693
86.2,50.459503
87.166667,50.2369
87.633333,50.130438
88.2,49.99494
88.716667,49.917513
90.166667,49.598126
90.683333,49.472307
91.2,49.385202
91.666667,49.269061
92.65,49.075494
93.116667,48.988388
93.633333,48.872247
94.1,48.775464
94.616667,48.659323
95.05,48.581896
95.5,48.475434
96.05,48.388328
96.55,48.272187
97.15,48.156047
97.9,48.010871
98.5,47.914087
99.016667,47.817303
99.5,47.730198
100.45,47.555987
100.933333,47.459203
101.9,46.946248
102.533333,46.859143
103.05,46.772037
103.583333,46.665575
104.15,46.559113
105.45,46.326832
105.9,46.259083
106.416667,46.142942
106.85,46.075194
107.283333,46.017123
107.766667,45.910661
108.716667,45.755807
109.166667,45.67838
109.683333,45.562239
110.65,45.397706
111.15,45.310601
111.6,45.213817
112.066667,45.146068
112.566667,45.13639
113.066667,45.039606
113.55,44.971857
114.0,44.904109
114.566667,44.797646
115.033333,44.739576
115.5,44.652471
115.95,44.575044
116.4,44.516973
116.916667,44.449224
117.466667,44.371797
117.95,44.275014
118.266667,44.2363
118.466667,44.207265
118.9,44.110481
119.383333,44.062089
119.466667,44.052411
119.8,43.955627
120.533333,43.858843
121.066667,43.742702
121.583333,43.703989
122.6,43.520099
123.066667,43.491064
123.55,43.413637
124.0,43.413637
124.383333,43.27814
124.85,43.229748
125.3,43.161999
125.95,43.161999
126.4,42.997466
126.816667,42.968431
127.533333,42.891004
128.416667,42.765185
128.9,42.629688
129.8,42.465155
130.9,42.290944
131.366667,42.639366
131.8,42.19416
132.3,42.542582
133.416667,42.203839
133.866667,42.300623
134.316667,42.068341
134.866667,42.407085
135.366667,41.971557
135.833333,42.107055
136.8,42.010271
137.233333,41.729598
137.716667,41.89413
138.15,41.671527
138.683333,41.797346
139.133333,41.565065
139.583333,41.700563
140.05,41.419889
140.516667,41.516673
141.0,41.29407
141.416667,41.284392
141.833333,41.119859
142.35,41.303749
142.833333,41.061789
143.416667,41.148894
143.95,40.906935
144.45,41.042432
144.983333,40.800473
145.533333,40.732724
145.983333,40.858543
146.466667,40.606905
146.933333,40.568191
147.833333,39.97781
148.283333,40.326232
148.766667,40.374623
149.2,40.63594
151.583333,39.890704
152.05,40.006845
152.95,39.929418
153.566667,39.648744
154.083333,39.842312
154.533333,39.590674
154.933333,39.67778
155.483333,39.619709
155.966667,39.600353
156.5,39.551961
157.583333,39.280966
158.116667,39.561639
158.716667,39.329358
159.666667,39.213217
160.683333,39.145468
161.116667,38.990614
161.383333,39.184182
161.7,38.942222
163.6,38.642192
164.55,38.690584
165.566667,38.5938
166.033333,38.429268
166.916667,38.467981
167.366667,38.448624
167.8,38.342162
169.733333,38.196986
169.866667,38.061489
170.716667,38.264735
171.216667,37.964705
171.65,37.945348
172.75,37.819529
173.483333,37.819529
173.766667,37.848564
174.233333,37.567891
174.733333,37.645318
175.183333,37.819529
175.666667,37.316253
176.2,37.925992
177.0,38.506695
177.766667,37.064615
178.1,38.003419
178.733333,37.200112
179.283333,36.958153
180.883333,37.132364
181.45,37.064615
181.966667,37.074293
182.5,37.722745
183.0,36.774263
183.533333,37.538856
184.7,36.532304
185.15,36.406485
186.183333,36.416163
187.2,36.416163
188.85,36.783942
189.3,35.922565
189.85,36.358093
190.4,35.796746
190.883333,36.909761
191.433333,35.690284
191.95,36.416163
192.5,35.951601
192.983333,36.087098
193.5,35.622535
193.966667,37.480786
194.983333,36.871047
195.866667,35.554787
196.316667,37.761459
197.266667,35.825782
197.516667,35.825782
197.75,35.53543
198.166667,35.119259
198.7,35.690284
199.133333,35.264435
200.566667,36.696836
202.016667,36.212917
202.516667,34.945048
203.0,35.448324
204.533333,35.854817
205.516667,36.445198
206.466667,36.300022
206.95,34.712767
207.45,35.332184
207.883333,34.799872
208.366667,35.187008
208.866667,34.896656
209.383333,34.954727
209.883333,34.557913
210.35,35.003119
210.816667,34.674053
211.383333,34.567591
212.366667,34.896656
212.833333,34.548234
213.216667,34.432094
213.666667,35.022475
214.133333,34.257883
214.6,35.148294
215.083333,34.170777
216.616667,36.358093
217.616667,34.374023
218.05,34.432094
218.533333,34.267561
218.95,34.296596
219.433333,33.996566
219.933333,33.919139
220.366667,33.638466
220.866667,35.564465
221.283333,33.715893
221.783333,35.274113
222.266667,33.473933
222.75,35.738676
223.2,33.319079
223.633333,33.744928
224.1,33.396506
225.05,33.725571
225.566667,33.009371
226.05,33.551361
226.533333,33.541682
227.1,33.125511
227.666667,34.625661
228.6,34.674053
229.5,33.502969
230.983333,33.338436
231.5,33.07712
231.916667,33.328758
232.383333,32.990014
232.816667,34.39338
233.283333,32.941622
234.733333,34.499842
235.7,32.999692
236.633333,34.161099
237.116667,32.486738
237.6,32.854517
238.05,32.2351
238.483333,33.261009
239.433333,32.602879
240.283333,32.77709
240.766667,33.667501
241.183333,32.418989
241.633333,32.35124
242.1,33.164225
242.583333,32.109281
243.05,32.719019
243.533333,33.348114
243.966667,31.93507
244.9,32.380276
245.383333,34.044958
245.85,34.586948
246.35,34.03528
246.816667,34.09335
247.266667,33.967531
247.716667,33.97721
248.116667,34.39338
248.583333,34.606305
249.05,34.315953
249.916667,32.273813
250.383333,31.944748
250.9,31.896356
251.933333,32.360919
252.4,33.67718
252.833333,34.325631
253.383333,35.041832
253.85,35.622535
254.3,34.509521
254.8,34.403059
255.25,34.867621
255.75,34.732124
256.2,33.13519
256.666667,32.418989
257.15,32.331884
257.633333,32.041532
258.583333,32.264135
259.016667,32.225421
259.9,32.031854
260.4,32.118959
260.9,32.2351
261.383333,32.283492
261.85,32.186708
262.283333,32.322205
263.25,32.35124
263.733333,32.35124
263.766667,32.196386
264.183333,32.244778
265.133333,32.196386
265.583333,32.399632
266.066667,31.722145
266.533333,32.109281
267.416667,32.05121
267.85,32.022175
268.266667,32.254457
268.783333,31.915713
269.233333,32.322205
269.716667,31.944748
270.166667,32.206065
270.633333,32.167351
271.066667,32.002819
271.533333,32.031854
271.966667,32.302849
272.4,31.847964
273.066667,31.838286
273.683333,32.244778
274.133333,32.022175
274.633333,31.770537
275.083333,32.089924
276.083333,32.29317
276.6,33.822355
277.15,33.125511
277.633333,33.357793
278.05,33.251331
278.55,33.251331
279.033333,33.725571
279.5,33.861069
280.516667,32.031854
281.533333,34.248204
281.983333,34.925691
282.483333,34.828908
283.0,34.57727
283.533333,34.122385
284.033333,34.228848
284.483333,34.664375
285.433333,34.248204
286.416667,32.360919
286.95,31.828608
287.483333,31.712467
287.75,31.712467
287.966667,31.673753
288.433333,32.544808
288.85,34.132064
289.683333,35.2354
290.15,35.206365
290.633333,34.267561
291.083333,34.161099
291.516667,34.586948
291.9,34.509521
292.366667,33.125511
292.9,32.370597
293.366667,32.022175
294.2,32.128638
294.65,31.838286
295.1,31.838286
295.583333,31.799572
297.133333,32.389954
297.75,34.170777
298.183333,34.257883
298.633333,34.596626
299.1,33.957853
299.983333,34.267561
300.483333,34.799872
300.916667,34.69341
301.416667,33.222295
301.866667,32.467381
302.366667,32.089924
302.833333,31.877
303.75,31.925391
304.2,32.012497
305.7,32.118959
306.666667,31.877
307.1,31.867321
308.016667,31.809251
308.466667,31.857643
308.9,31.944748
309.4,31.896356
310.133333,32.05121
310.583333,31.954427
311.033333,31.906035
312.7,34.325631
313.166667,33.744928
313.616667,33.880426
314.033333,33.590074
314.5,33.648144
314.966667,33.822355
315.833333,34.383702
316.266667,35.187008
316.683333,34.741802
317.183333,34.790194
317.666667,35.012797
318.05,34.645018
318.533333,34.441772
319.0,34.538556
319.466667,34.819229
319.916667,35.525751
320.316667,35.767711
321.216667,35.738676
321.75,35.903209
322.216667,35.322505
323.116667,35.361219
323.966667,36.367771
324.45,36.445198
324.916667,36.396806
325.383333,36.454877
325.833333,36.600052
326.283333,35.980636
328.116667,37.09365
328.65,37.074293
329.133333,37.132364
329.716667,37.354967
330.55,36.706515
331.05,36.79362
331.533333,36.97751
332.0,37.645318
332.516667,37.345288
333.0,38.709941
333.533333,38.526052
334.0,38.129238
334.516667,37.809851
335.95,38.709941
336.483333,38.458303
336.9,39.416463
337.3,39.37775
337.816667,39.464855
339.566667,38.89383
339.933333,39.058363
340.416667,39.280966
340.95,39.97781
341.416667,39.580996
341.9,40.084272
342.3,40.916613
342.783333,40.703689
343.7,39.658423
344.583333,40.103629
345.166667,40.355267
345.983333,41.226322
346.45,40.606905
346.933333,41.081146
347.433333,41.961879
347.95,41.052111
348.383333,40.626262
348.833333,41.206965
349.3,42.513547
349.766667,42.271587
350.216667,42.43612
350.716667,41.826382
350.95,41.826382
351.783333,41.690884
352.183333,41.807025
352.633333,42.010271
353.1,42.687758
353.55,42.920039
354.083333,44.275014
354.6,43.674954
355.1,43.597526
355.6,42.43612
355.983333,42.43612
356.45,42.581296
357.383333,43.007145
357.816667,43.132964
358.266667,43.791094
358.766667,43.752381
359.25,44.449224
359.683333,45.175104
360.533333,43.568491
361.016667,43.762059
361.533333,44.004019
361.933333,44.033054
362.4,44.17823
362.866667,44.216943
363.283333,45.165425
363.766667,46.355867
364.233333,45.852591
365.15,44.333084
365.616667,44.352441
366.083333,44.633114
366.583333,44.83636
367.033333,45.07832
367.466667,45.591274
367.916667,45.717093
368.416667,46.888178
369.2,46.752681
369.8,46.772037
370.216667,46.897856
370.733333,47.217243
371.166667,47.526952
371.65,47.768911
372.116667,47.962479
372.666667,47.739876
373.216667,46.8785
373.716667,47.033354
374.266667,47.072067
374.75,47.217243
374.95,47.217243
375.25,47.89473
375.766667,48.097976
376.183333,48.901283
376.716667,49.859443
377.216667,48.891604
377.716667,47.972157
378.183333,48.243152
378.666667,48.339936
379.183333,48.359293
380.15,48.843212
380.616667,49.665875
381.1,50.111081
381.616667,50.372397
382.066667,49.433594
382.566667,49.762659
383.016667,50.585322
383.55,50.604679
383.983333,50.740176
384.45,50.440146
384.966667,49.646518
385.433333,49.69491
385.966667,49.714267
386.366667,50.023976
386.766667,51.020849
387.2,51.940296
387.683333,51.533804
388.116667,51.456377
388.65,51.669301
389.116667,51.920939
389.583333,52.172577
390.033333,52.39518
390.5,52.57907
390.966667,52.753281
391.4,52.888778
391.816667,53.033954
392.233333,53.188808
392.65,53.343662
393.366667,53.653371
393.9,53.866295
394.266667,54.030828
394.733333,54.205039
395.15,54.340536
395.65,54.514747
396.066667,54.67928
396.516667,54.853491
396.95,54.988988
397.45,55.134164
397.883333,55.269661
398.366667,55.318053
398.816667,55.482586
399.25,55.743902
399.8,55.93747
400.3,56.072968
400.816667,56.247178
401.266667,56.382676
401.75,56.53753
402.233333,56.702063
402.733333,56.924666
403.183333,57.127912
403.683333,57.321479
404.183333,57.476334
404.666667,57.592474
405.15,56.634314
406.783333,55.898757
407.266667,55.889078
407.733333,55.124486
408.133333,55.463229
408.7,58.076394
409.216667,57.621509
409.75,57.67958
410.35,57.050485
410.816667,56.769811
411.366667,56.450425
413.766667,59.005519
414.666667,57.815077
415.183333,57.069841
415.666667,56.605279
416.2,55.976184
416.666667,55.492264
418.133333,54.185682
418.633333,53.798547
419.083333,53.421089
419.633333,53.014597
420.066667,52.69521
420.516667,52.375824
420.983333,52.066115
421.883333,51.466055
422.4,51.156347
423.4,50.585322
423.85,50.353041
424.383333,50.062689
424.883333,49.811051
425.383333,49.559413
425.883333,49.307775
426.833333,48.862569
427.3,48.639966
427.733333,48.465755
429.1,47.875374
429.6,47.662449
430.1,47.468881
430.616667,47.265635
431.1,47.081746
431.616667,47.314027
432.116667,47.120459
432.633333,47.072067
433.133333,47.033354
433.666667,46.946248
434.15,46.897856
435.05,46.781716
436.0,46.626862
436.45,46.491364
436.9,46.442972
437.383333,46.39458
437.85,46.297796
438.366667,46.220369
438.833333,46.152621
439.3,46.065515
439.766667,45.852591
440.2,45.79452
441.283333,45.600953
442.15,45.455777
442.683333,45.37835
443.166667,45.300923
451.2,44.081446
451.65,44.023375
452.116667,43.955627
452.583333,43.887878
453.05,43.839486
453.983333,43.713667
454.466667,43.63624
454.966667,43.57817
455.466667,43.520099
455.95,43.452351
456.5,43.374924
457.05,43.316853
457.5,43.249104
457.95,43.171677
458.466667,43.113607
458.966667,43.045858
459.483333,42.987788
459.95,42.929718
460.45,42.871647
460.933333,42.813577
461.1,42.813577
461.466667,42.755507
461.75,42.755507
461.95,42.697436
462.5,42.629688
463.016667,42.571617
464.083333,42.43612
464.583333,42.368371
466.0,42.213517
467.9,41.932844
468.383333,41.903809
468.866667,41.826382
469.366667,41.787668
469.816667,41.729598
470.766667,41.613457
471.75,41.506995
472.183333,41.448924
472.666667,41.390854
473.116667,41.342462
474.55,41.197286
475.066667,41.129538
475.55,41.071467
476.033333,41.013397
476.533333,40.955327
476.966667,40.926292
477.5,42.290944
477.966667,43.616883
478.466667,45.37835
478.95,45.862269
479.416667,45.117033
479.9,44.884752
480.433333,45.165425
480.95,45.126712
481.45,43.587848
481.9,44.846038
482.416667,46.830108
482.866667,47.275314
483.45,47.062389
484.0,46.317153
484.533333,46.239726
485.05,46.423615
486.116667,47.701163
486.666667,48.156047
487.166667,47.923765
487.7,48.059263
488.766667,47.052711
489.566667,47.381776
490.283333,47.526952
490.8,48.959353
491.25,48.939996
491.733333,48.814177
492.216667,48.930318
492.716667,49.152921
493.2,49.443272
493.733333,49.743302
494.2,49.99494
494.7,50.265935
495.15,50.498216
495.633333,50.720819
496.033333,50.885352
496.533333,51.049885
497.05,51.19506
497.583333,51.330558
498.033333,51.427342
498.566667,51.533804
499.033333,51.601553
499.566667,51.698336
500.033333,51.824156
500.5,51.940296
501.0,52.075794
501.466667,52.220969
502.333333,50.875674
502.65,50.875674
503.183333,51.253131
503.7,51.630588
504.133333,51.649945
504.6,51.504769
505.166667,51.146668
505.733333,50.440146
505.816667,50.440146
506.183333,49.607805
506.85,48.939996
507.433333,48.291544
507.933333,47.701163
508.516667,47.2366
509.816667,46.510721
510.266667,46.297796
510.766667,46.055837
511.283333,45.833234
511.8,45.600953
512.35,45.417063
512.9,45.175104
513.466667,45.039606
514.416667,44.729898
514.883333,44.604079
515.4,44.458903
515.916667,44.304049
516.5,44.149194
517.583333,43.8782
518.066667,43.752381
518.616667,43.616883
519.1,43.491064
519.616667,43.374924
520.133333,43.258783
521.2,43.016823
521.733333,42.900683
522.2,42.79422
523.666667,42.474834
524.166667,42.358693
524.716667,42.261909
526.7,41.874773
527.2,41.768311
527.65,41.671527
528.183333,41.584422
529.216667,41.390854
529.766667,41.29407
529.816667,41.29407
530.266667,41.216643
530.75,41.110181
531.816667,40.916613
532.85,40.771437
533.433333,40.645618
533.916667,40.568191
534.883333,40.423015
535.45,40.316553
535.9,40.248804
536.4,40.161699
536.9,40.09395
537.433333,40.006845
538.25,39.881026
538.75,39.803599
539.233333,39.73585
539.766667,39.639066
540.266667,39.571317
540.816667,39.484212
541.416667,39.416463
541.916667,39.339036
543.416667,39.13579
544.35,39.000293
544.833333,38.942222
545.283333,38.913187
545.766667,38.816403
546.2,38.77769
546.75,38.690584
547.716667,38.574443
548.75,38.438946
549.3,38.361519
550.316667,38.245378
550.85,38.187308
551.383333,38.090524
553.966667,37.790494
554.466667,37.742102
555.0,37.625962
555.633333,37.316253
556.133333,37.229148
556.7,37.200112
557.133333,37.142042
557.633333,37.074293
558.1,37.025902
558.616667,36.958153
559.15,36.890404
559.65,36.890404
560.1,36.900082
560.516667,36.871047
561.483333,36.687158
562.3,36.638766
562.816667,36.629088
563.383333,36.522625
563.866667,36.454877
564.383333,36.445198
564.85,36.338736
565.816667,36.280666
566.283333,36.232274
566.783333,36.183882
567.25,36.116133
567.8,36.058063
568.7,36.038706
569.15,35.961279
570.466667,35.816103
571.45,35.699962
571.916667,35.680606
572.816667,35.583822
573.316667,35.554787
574.216667,35.47736
575.283333,35.361219
575.8,35.332184
576.233333,35.29347
577.35,35.17733
577.8,35.128938
578.3,35.080546
578.833333,35.022475
579.833333,34.945048
580.316667,35.225721
580.816667,34.790194
581.45,34.828908
581.966667,34.848264
582.483333,34.722445
584.033333,34.548234
584.566667,34.499842
585.05,34.557913
585.616667,34.441772
586.583333,34.557913
587.1,34.296596
587.583333,34.567591
588.116667,34.267561
588.583333,34.422415
589.033333,34.354667
589.583333,34.248204
590.05,34.306275
590.616667,34.09335
591.083333,34.238526
591.616667,34.161099
592.116667,33.996566
592.6,34.209491
593.133333,33.909461
593.6,34.064315
594.533333,33.938496
594.95,33.938496
595.95,33.822355
596.4,33.79332
597.416667,33.706215
598.466667,34.325631
598.95,35.883852
599.483333,36.909761
600.0,37.132364
600.466667,36.532304
600.916667,36.687158
601.5,37.142042
601.966667,37.09365
602.45,35.728998
602.95,34.519199
603.533333,34.112707
603.933333,33.890104
604.45,33.890104
604.9,33.861069
605.983333,33.841712
607.616667,33.73525
608.1,33.715893
608.6,33.725571
609.1,33.715893
609.616667,33.744928
610.616667,34.480486
611.183333,35.399932
611.683333,36.725872
612.183333,36.958153
612.716667,36.474233
613.216667,36.522625
613.75,36.967831
614.2,37.171077
614.7,36.300022
615.183333,34.722445
616.266667,34.722445
616.683333,33.706215
617.233333,33.802999
617.716667,33.890104
619.1,33.890104
619.583333,33.79332
620.05,33.802999
621.116667,33.773963
621.666667,33.715893
622.2,33.696536
622.733333,33.812677
623.25,33.744928
624.9,34.103029
625.45,36.425842
625.883333,36.512947
626.316667,36.609731
626.933333,36.348414
