time,pressure
0.0,177.995067
0.095556,177.927318
0.211667,177.878927
0.388333,177.849891
0.536389,177.791821
0.664167,178.188635
0.746111,179.146795
0.873889,180.811478
1.015,182.650371
1.145,182.456804
1.253889,182.11806
1.365,178.295097
1.484444,174.646345
1.619444,170.920166
1.900278,164.387255
2.026389,161.870874
2.164722,159.267388
2.288056,157.099429
2.462222,154.33141
2.572222,152.705441
2.704167,150.91494
2.837778,149.124438
2.966667,147.37265
3.085,145.81443
3.240833,143.83036
3.413056,141.662402
3.558056,139.823508
3.638889,138.904061
3.774444,137.365198
3.900556,135.923118
4.039444,134.490717
4.166389,133.290597
4.237222,132.526004
4.387222,131.141995
4.514722,129.951553
4.577778,129.951553
4.645278,128.886931
4.773056,127.81263
4.907778,126.777042
5.043333,125.71242
5.1725,124.81233
5.352778,123.525104
5.536667,122.334662
5.686111,121.424894
5.851944,120.447377
5.991667,119.663428
6.093056,119.11176
6.234722,118.308453
6.413056,117.36965
6.559722,116.643771
6.677778,116.072746
6.797222,115.511399
6.93,114.882304
7.058056,114.359671
7.191389,113.730576
7.403889,112.878878
7.520556,112.414316
7.623611,111.998145
7.758333,111.494869
7.873611,111.088377
8.007778,110.5851
8.145833,110.110859
8.269444,109.675332
8.464444,109.036558
8.608611,109.036558
8.615,108.513926
8.76,108.030006
8.911111,107.613836
9.040278,107.207343
9.174444,106.791173
9.276667,106.520178
9.448889,106.036258
9.584444,105.678158
9.724444,105.358771
9.838333,105.06842
9.9775,104.690963
10.1225,104.342541
10.239444,104.100581
10.433333,103.636018
10.577778,103.335988
10.686667,103.132742
10.824722,102.842391
10.950833,102.581074
11.091667,102.290723
11.223333,102.000371
11.393611,101.680984
11.504167,101.439024
11.632222,101.138994
11.773889,100.877678
11.894167,100.62604
12.016667,100.364724
12.156389,100.093729
12.360833,99.66788
12.501389,99.387206
12.624167,99.387206
12.624444,99.387206
12.635556,99.164603
12.778333,98.88393
12.916389,98.603257
13.0225,98.409689
13.143611,98.16773
13.273333,97.935448
13.461667,97.56767
13.599444,97.316032
13.696389,97.161177
13.821944,96.870826
13.948056,96.48369
14.075833,95.922344
14.205833,95.302927
14.385,94.451229
14.531944,93.764063
14.685556,93.115611
14.853611,92.418768
14.995556,91.838064
15.113056,91.373502
15.243889,90.899261
15.432222,90.192739
15.583056,89.612035
15.690556,89.205543
15.828611,88.702267
15.962778,88.237704
16.096111,87.773142
16.226944,87.347293
16.414722,86.689162
16.547222,86.28267
16.638889,86.28267
16.7,85.818108
16.825556,85.460007
16.934722,85.092229
17.080278,84.676058
17.220556,84.269566
17.4,83.775968
17.529722,83.388832
17.659722,83.021054
17.774722,82.721024
17.908333,82.333888
18.029722,81.956431
18.163056,81.549939
18.376667,80.949879
18.513611,80.553065
18.631389,80.253035
18.768889,79.904613
18.9,79.565869
19.0325,79.275518
19.1825,78.956131
19.350833,78.578674
19.529167,78.249609
19.664722,77.959257
19.799167,77.649549
19.957222,77.33984
20.1,77.097881
20.221389,76.855921
20.4075,76.517177
20.524722,76.38168
20.658611,76.38168
20.665,76.130042
20.789167,75.965509
20.918056,75.791298
21.044167,75.588052
21.175833,75.413841
21.355278,75.18156
21.514444,74.968636
21.631667,74.82346
21.7625,74.668606
21.901111,74.504073
22.052778,74.310505
22.183611,74.155651
22.359722,74.000797
22.500556,73.826586
22.647778,73.700767
22.772778,73.555591
22.899444,73.449129
23.033889,73.332988
23.174722,73.207169
23.3575,73.091028
23.498333,72.965209
23.654167,72.849069
23.779444,72.771642
23.908889,72.645823
24.055,72.520004
24.179444,72.219974
24.353056,71.813481
24.53,71.455381
24.659444,71.194065
24.694167,71.194065
24.694444,71.194065
24.8025,70.903713
24.927778,70.652075
25.051944,70.43915
25.197778,70.187512
25.385,69.906839
25.514167,69.674558
25.639167,69.519704
25.896389,69.132568
26.017222,69.026106
26.200556,68.813181
26.366944,68.609935
26.513333,68.484116
26.661667,68.309905
26.780278,68.213121
26.908889,68.067945
27.038889,67.971162
27.153889,67.874378
27.373889,67.632418
27.506944,67.487242
27.641944,67.351745
27.758611,67.245283
27.927222,67.100107
28.05,67.013001
28.183333,66.887182
28.3725,66.732328
28.504722,66.606509
28.65,66.509725
28.708333,66.509725
28.7775,66.383906
28.917778,66.258087
29.058611,66.093554
29.185278,65.996771
29.350833,65.861273
29.471667,65.764489
29.612778,65.648349
29.775833,65.503173
29.895556,65.445103
30.056667,65.328962
30.1775,65.261213
30.368056,65.154751
30.531667,65.057967
30.665,65.019253
30.764444,64.92247
30.895,64.719223
31.028056,64.545013
31.163056,64.399837
31.2825,64.244983
31.462778,64.012701
31.595833,63.867525
31.728056,63.72235
31.860278,63.53846
31.984167,63.325536
32.111667,63.12229
32.244167,62.919043
32.416667,62.715797
32.573056,62.502873
32.699722,62.357697
32.840556,62.193164
32.9725,62.028632
33.093333,61.912491
33.269722,61.728602
33.424444,61.544712
33.551944,61.399537
33.669444,61.283396
33.789444,61.128542
33.925556,61.002723
34.057778,60.876904
34.181944,60.770441
34.385833,60.605909
34.524722,60.509125
34.650278,60.42202
34.793333,60.315557
34.924722,60.209095
35.066389,60.112311
35.179444,60.083276
35.360833,59.947779
35.493889,59.841316
35.644444,59.725176
35.769722,59.618713
35.891667,59.512251
36.033056,59.454181
36.176944,59.33804
36.354167,59.192864
36.516944,59.125116
36.655278,58.999297
36.805278,58.92187
36.936389,58.844442
37.073611,58.747659
37.216111,58.641196
37.4425,58.534734
37.58,58.447629
37.701111,58.370201
37.830833,58.312131
37.965278,58.244382
38.116667,58.166955
38.241944,58.13792
38.368056,58.050815
38.471944,58.031458
38.601667,57.954031
38.709444,57.924996
38.830833,57.886282
38.967778,57.857247
39.115278,57.808855
39.254722,57.77982
39.425833,57.712071
39.558611,57.683036
39.719167,57.624966
39.831111,57.605609
39.969722,57.586252
40.108611,57.508825
40.237778,57.508825
40.421389,57.47979
40.583889,57.499147
40.713889,57.470111
40.859444,57.42172
40.978333,57.42172
41.098056,57.363649
41.23,57.344292
41.431667,57.23783
41.552222,57.17976
41.725278,57.112011
41.836111,57.073298
41.978056,57.015227
42.115556,56.947479
42.25,56.87973
42.415278,56.792624
42.58,56.69584
42.710833,56.666805
42.825833,56.647449
42.995,56.570021
43.126667,56.52163
43.267778,56.511951
43.437222,56.463559
43.5675,56.434524
43.7,56.376454
43.84,56.357097
43.951111,56.318383
44.085,56.269991
44.208611,56.240956
44.364444,56.202243
44.492778,56.173208
44.637778,56.124816
44.763611,56.076424
44.896667,56.057067
45.0225,55.998997
45.159722,55.989318
45.359167,55.950605
45.517778,55.940926
45.665833,55.882856
45.803611,55.853821
45.941111,55.805429
46.079444,55.786072
46.223056,55.747359
46.417222,55.67961
46.546667,55.689288
46.674722,55.62154
46.800833,55.611861
46.933333,55.592504
47.036389,55.573148
47.158889,55.515077
47.348889,55.466685
47.498611,55.466685
47.645278,55.389258
47.764167,55.398937
47.906111,55.350545
48.041667,55.32151
48.185833,55.273118
48.360556,55.263439
48.513333,55.234404
48.629722,55.19569
48.761944,55.147299
48.919167,55.147299
49.04,55.108585
49.150556,55.069871
49.373889,55.031158
49.516667,55.002123
49.625833,54.992444
49.8925,54.915017
50.005278,54.915017
50.128889,54.83759
50.287778,54.808555
50.486389,54.769841
50.664444,54.731128
50.806111,54.702093
50.927222,54.673058
51.013056,54.673058
51.168056,54.614987
51.353333,54.576274
51.513889,54.53756
51.6525,54.518203
51.786111,54.498847
51.916944,54.47949
52.05,54.431098
52.178889,54.42142
52.295,54.382706
52.4625,54.363349
52.563889,54.353671
52.704167,54.314957
52.811389,54.285922
52.944167,54.285922
53.073611,54.227852
53.195,54.218173
53.3625,54.189138
53.510278,54.121389
53.644444,54.131068
53.752778,54.111711
53.893056,54.053641
54.018889,54.063319
54.155556,54.043962
54.287222,54.014927
54.4625,53.966535
54.572222,53.966535
54.689444,53.918143
54.819722,53.908465
54.944722,53.889108
55.080556,53.860073
55.207222,53.811681
55.420833,53.763289
55.551389,53.772968
55.811389,53.705219
55.944722,53.656827
56.083056,53.63747
56.220833,53.666505
56.404167,53.598757
56.550833,53.5794
56.679722,53.560043
56.829167,53.521329
56.950278,53.501973
57.105,53.482616
57.240556,53.424546
57.424167,53.39551
57.573333,53.385832
57.713889,53.356797
57.838611,53.327762
58.0,53.318083
58.134167,53.260013
58.208056,53.230978
58.393611,53.201943
58.531944,53.163229
58.625,53.163229
58.741944,53.114837
58.876944,53.124516
58.973889,53.105159
59.098889,53.085802
59.269722,53.09548
59.434444,53.03741
59.558611,53.027732
59.686111,53.018053
59.82,52.998697
59.976111,53.008375
60.122778,52.998697
60.25,52.989018
60.439444,52.959983
60.568611,52.921269
60.715833,52.911591
60.836667,52.901913
60.963611,52.892234
61.097222,52.853521
61.206389,52.805129
61.394444,52.785772
61.511944,52.785772
61.644722,52.747059
61.777222,52.727702
61.883056,52.727702
62.007778,52.727702
62.144722,52.698667
62.287778,52.688988
62.453056,52.659953
62.586944,52.640596
62.708611,52.630918
62.830833,52.611561
62.976667,52.592204
63.098611,52.572848
63.2475,52.553491
63.429444,52.524456
63.5625,52.514777
63.720833,52.524456
63.850556,52.456707
63.978611,52.456707
64.101389,52.37928
64.229444,52.369601
64.432778,52.330888
64.576667,52.292174
64.709167,52.272818
64.841389,52.243782
64.973889,52.253461
65.107222,52.234104
65.223333,52.224426
65.423056,52.224426
65.568889,52.224426
65.6975,52.19539
65.843611,52.214747
65.971111,52.185712
66.131667,52.185712
66.284722,52.156677
66.486944,52.127642
66.646944,52.088928
66.79,52.069571
66.921111,52.059893
67.050278,52.050215
67.175,52.001823
67.348611,51.992144
67.508889,52.011501
67.638333,51.982466
67.768611,51.934074
67.904444,51.934074
68.021667,51.914717
68.160833,51.89536
68.296667,51.846969
68.487778,51.808255
68.646111,51.750185
68.7825,51.750185
68.907222,51.759863
69.040556,51.740506
69.141389,51.730828
69.273611,51.701793
69.451667,51.701793
69.584167,51.653401
69.704444,51.605009
69.851389,51.59533
70.005278,51.575974
70.108611,51.556617
70.233333,51.575974
70.420556,51.517903
70.585556,51.527582
70.679722,51.508225
70.804167,51.488868
70.9225,51.469511
71.050556,51.440476
71.175833,51.430798
71.351111,51.392084
71.506111,51.392084
71.633611,51.382406
71.783889,51.334014
71.907778,51.324336
72.035556,51.314657
72.16,51.304979
72.292778,51.285622
72.465833,51.275944
72.570556,51.246909
72.698056,51.246909
72.835278,51.246909
72.928333,51.217873
73.059167,51.217873
73.191944,51.188838
73.290556,51.188838
73.473611,51.17916
73.605,51.130768
73.720556,51.159803
73.896389,51.082376
74.063333,51.092054
74.193611,51.072698
74.378611,51.024306
74.633333,51.004949
74.801944,50.985592
74.926389,50.99527
75.038333,50.975914
75.164722,50.985592
75.270278,50.946878
75.434722,50.9372
75.573056,50.946878
75.703889,50.946878
75.831389,50.956557
75.958056,50.956557
76.126111,50.917843
76.218056,50.898487
76.414167,50.908165
76.546111,50.898487
76.669167,50.898487
76.802222,50.888808
76.950278,50.87913
77.109444,50.898487
77.238611,50.87913
77.422222,50.859773
77.579167,50.840416
77.694444,50.840416
77.839167,50.821059
77.956111,50.850095
78.121667,50.830738
78.2525,50.782346
78.423889,50.801703
78.553611,50.772668
78.698611,50.782346
78.81,50.753311
78.941111,50.733954
79.075,50.724276
79.231667,50.704919
79.4025,50.733954
79.535278,50.685562
79.652778,50.704919
79.774444,50.675884
79.909444,50.675884
80.036944,50.656527
80.164444,50.608135
80.271389,50.656527
80.422222,50.627492
80.575833,50.5791
80.691111,50.5791
80.826389,50.530708
80.988333,50.521029
81.122222,50.501673
81.255278,50.491994
81.432778,50.491994
81.575278,50.472638
81.851389,50.453281
81.978056,50.424246
82.122778,50.39521
82.263889,50.385532
82.428056,50.404889
82.576667,50.404889
82.706111,50.404889
82.825556,50.424246
82.976667,50.424246
83.105,50.424246
83.254167,50.433924
83.433056,50.472638
83.556111,50.491994
83.695278,50.443602
83.830278,50.462959
83.958611,50.443602
84.099167,50.404889
84.241944,50.414567
84.41,50.414567
84.588611,50.404889
84.721944,50.404889
84.846944,50.356497
84.961389,50.366175
85.091389,50.39521
85.223056,50.375854
85.411667,50.385532
85.561667,50.375854
85.715,50.404889
85.851667,50.356497
85.990833,50.317783
86.090833,50.317783
86.215278,50.298427
86.394722,50.317783
86.5325,50.298427
86.659444,50.269391
86.775833,50.308105
86.8975,50.298427
87.043611,50.269391
87.195556,50.240356
87.356944,50.27907
87.495,50.259713
87.615,50.259713
87.744167,50.259713
87.887222,50.230678
88.005556,50.250035
88.142222,50.230678
88.274444,50.259713
88.455278,50.240356
88.582222,50.240356
88.705556,50.211321
88.8175,50.201643
88.988056,50.172608
89.111667,50.114537
89.433889,50.114537
89.559167,50.085502
89.686111,50.085502
89.866667,50.085502
89.995556,50.066145
90.126111,50.085502
90.255556,50.075824
90.414444,50.066145
90.568889,50.008075
90.696944,49.998397
90.844444,50.008075
90.968056,49.97904
91.114167,49.950005
91.231389,49.911291
91.398611,49.891934
91.511389,49.862899
91.636389,49.853221
91.762778,49.814507
91.89,49.775794
92.041667,49.775794
92.195833,49.756437
92.395278,49.756437
92.534444,49.746758
92.643333,49.727402
92.76,49.727402
92.916389,49.698367
93.056111,49.708045
93.169167,49.688688
93.371667,49.698367
93.499722,49.708045
93.622778,49.698367
93.7825,49.698367
93.904722,49.688688
94.026111,49.659653
94.187222,49.630618
94.378333,49.630618
94.510833,49.649975
94.641667,49.630618
94.77,49.582226
94.901389,49.591904
95.046944,49.572548
95.1775,49.562869
95.295833,49.572548
95.47,49.543512
95.572778,49.533834
95.718889,49.601583
95.848333,49.553191
95.984167,49.572548
96.109444,49.524156
96.243611,49.553191
96.410278,49.553191
96.523333,49.533834
96.638889,49.524156
96.785278,49.533834
96.908611,49.553191
97.049722,49.504799
97.171389,49.553191
97.376389,49.533834
97.5,49.524156
97.610278,49.553191
97.895278,49.543512
98.0075,49.514477
98.148333,49.514477
98.357778,49.504799
98.479444,49.504799
98.612778,49.504799
98.769722,49.504799
98.896667,49.514477
99.023056,49.504799
99.155278,49.514477
99.346944,49.49512
99.488333,49.49512
99.608889,49.485442
99.772222,49.49512
99.896111,49.485442
100.029722,49.475764
100.165278,49.485442
100.355556,49.485442
100.492222,49.524156
100.631389,49.504799
100.759167,49.514477
100.906667,49.49512
101.002222,49.504799
101.133889,49.475764
101.235278,49.49512
101.408611,49.49512
101.577778,49.485442
101.709444,49.49512
101.835,49.466085
101.965833,49.446728
102.095833,49.427372
102.241111,49.427372
102.412222,49.417693
102.556389,49.427372
102.696944,49.408015
102.820278,49.398337
102.982778,49.37898
103.114444,49.359623
103.238056,49.359623
103.403889,49.388658
103.503056,49.417693
103.654167,49.427372
103.792222,49.466085
103.921667,49.485442
104.038611,49.49512
104.158333,49.514477
104.286667,49.475764
104.463611,49.49512
104.5575,49.514477
104.673611,49.533834
104.832222,49.553191
104.951389,49.582226
105.1075,49.601583
105.224722,49.669331
105.399444,49.67901
105.505556,49.717723
105.634167,49.727402
105.757778,49.73708
105.907222,49.756437
106.034167,49.756437
106.170833,49.73708
106.289722,49.785472
106.47,49.843542
106.573611,49.862899
106.703889,49.862899
106.832778,49.911291
106.936111,49.930648
107.068056,49.959683
107.191389,49.969361
107.367222,49.998397
107.503889,50.008075
107.620833,50.046788
107.769722,50.066145
107.873889,50.066145
108.0025,50.09518
108.118333,50.124216
108.248889,50.124216
108.435556,50.162929
108.560556,50.162929
108.709722,50.201643
108.807778,50.220999
108.941667,50.250035
109.068056,50.269391
109.181111,50.308105
109.374444,50.327462
109.517778,50.366175
109.641389,50.366175
109.776389,50.39521
109.897778,50.414567
110.054722,50.433924
110.158056,50.453281
110.369167,50.521029
110.507222,50.530708
110.608889,50.569421
110.758333,50.5791
110.912222,50.627492
111.036667,50.666205
111.163889,50.656527
111.343056,50.714597
111.513889,50.743632
111.633611,50.782346
111.763333,50.792024
111.9,50.821059
112.043889,50.850095
112.169722,50.869451
112.368611,50.927522
112.505833,50.956557
112.629167,50.956557
112.753056,50.975914
112.891944,50.985592
113.040833,50.985592
113.170278,50.975914
113.359722,51.014627
113.502778,51.033984
113.640278,51.004949
113.790556,51.043662
113.888889,51.024306
114.021944,51.053341
114.161667,51.043662
114.344167,51.072698
114.502778,51.150125
114.640833,51.17916
114.782222,51.198517
114.905,51.227552
115.036111,51.256587
115.188889,51.285622
115.355556,51.304979
115.488056,51.334014
115.646667,51.363049
115.767222,51.430798
115.904444,51.440476
116.02,51.440476
116.180556,51.488868
116.350556,51.508225
116.518333,51.53726
116.643611,51.556617
116.752222,51.556617
116.876667,51.575974
117.001389,51.585652
117.130556,51.614687
117.253056,51.614687
117.436667,51.614687
117.574167,51.614687
117.682778,51.605009
117.818333,51.614687
117.977222,51.614687
118.105556,51.624366
118.2275,51.672758
118.425556,51.701793
118.566667,51.701793
118.714167,51.701793
118.871389,51.711471
118.898611,51.730828
119.008333,51.711471
119.110278,51.740506
119.239167,51.721149
119.416389,51.730828
119.575833,51.721149
119.706111,51.77922
119.832778,51.769541
119.953889,51.769541
120.099444,51.788898
120.243333,51.77922
120.411389,51.817933
120.55,51.817933
120.681944,51.808255
120.835556,51.846969
120.994167,51.846969
121.139444,51.866325
121.2725,51.876004
121.414444,51.89536
121.56,51.89536
121.687222,51.914717
121.8875,51.943752
122.0525,51.953431
122.178056,51.943752
122.356667,51.934074
122.523333,51.943752
122.645556,51.953431
122.782222,51.963109
122.914722,51.963109
123.051389,51.972788
123.168611,51.982466
123.350556,52.011501
123.490556,52.021179
123.619167,52.001823
123.766944,52.040536
123.893056,52.040536
124.026389,52.030858
124.161944,52.050215
124.374167,52.059893
124.489444,52.088928
124.631389,52.07925
124.774444,52.098607
124.887778,52.069571
125.041389,52.098607
125.161389,52.127642
125.281667,52.108285
125.444167,52.108285
125.5775,52.098607
125.693333,52.127642
125.835,52.108285
125.95,52.117963
126.095278,52.088928
126.219167,52.098607
126.413611,52.127642
126.547222,52.088928
126.714167,52.088928
126.831389,52.098607
126.968056,52.098607
127.101667,52.07925
127.198333,52.088928
127.356944,52.108285
127.493611,52.088928
127.623611,52.098607
127.736944,52.088928
127.807222,52.059893
127.969167,52.069571
128.093611,52.059893
128.253333,52.050215
128.394722,52.050215
128.527222,52.059893
128.663889,52.059893
128.788889,52.021179
128.906389,52.030858
129.025833,51.992144
129.366667,51.982466
129.498056,52.001823
129.630278,51.992144
129.776944,51.963109
129.901111,51.953431
130.014444,51.943752
130.171111,51.943752
130.340556,51.953431
130.483611,51.934074
130.656944,51.934074
130.775,51.943752
130.925556,51.943752
131.071667,51.934074
131.174167,51.934074
131.36,51.934074
131.480833,51.934074
131.783056,51.982466
131.914444,51.963109
132.056944,51.963109
132.161389,51.943752
132.288056,51.963109
132.482222,51.972788
132.613333,51.963109
132.76,51.982466
132.885,51.992144
133.010833,52.001823
133.139167,52.001823
133.258056,51.982466
133.432222,51.982466
133.563611,52.021179
133.688333,51.992144
133.825,52.021179
133.966667,52.021179
134.080556,52.021179
134.213611,52.011501
134.3975,52.021179
134.534167,52.040536
134.595,52.040536
134.661389,52.117963
134.802778,52.088928
134.898333,52.127642
135.031111,52.127642
135.155,52.156677
135.3475,52.205069
135.5025,52.253461
135.638611,52.292174
135.7725,52.330888
135.9125,52.321209
136.0525,52.359923
136.166111,52.369601
136.363611,52.388958
136.484722,52.456707
136.648056,52.485742
136.76,52.485742
136.898889,52.49542
136.998333,52.514777
137.136111,52.534134
137.254167,52.524456
137.441389,52.553491
137.560556,52.592204
137.706111,52.640596
137.803889,52.640596
137.921389,52.621239
138.033611,52.659953
138.186944,52.659953
138.278611,52.67931
138.457222,52.640596
138.568056,52.698667
138.599167,52.698667
138.686111,52.708345
138.722778,52.669631
138.843333,52.708345
138.9675,52.688988
139.001389,52.708345
139.117222,52.708345
139.255,52.718023
139.439167,52.747059
139.569167,52.698667
