time,pressure
0.0,142.089082
0.01,141.680726
0.02,141.588386
0.03,141.540554
0.04,141.508834
0.05,141.485289
0.06,141.46651
0.07,141.45089
0.08,141.437442
0.09,141.425509
0.101111,141.413888
0.113333,141.402289
0.127222,141.390066
0.142778,141.377857
0.16,141.365238
0.179444,141.352112
0.201389,141.338496
0.226111,141.324305
0.253611,141.309487
0.284722,141.293999
0.319444,141.277805
0.358333,141.260874
0.401944,141.243181
0.451111,141.224701
0.506111,141.205406
0.567778,141.185287
0.637222,141.164312
0.715,141.142508
0.802222,141.119762
0.9,141.09607
1.009722,141.071025
1.133056,141.045362
1.271389,141.019436
1.426389,140.990972
1.600556,140.961782
1.795833,140.932056
2.014722,140.900471
2.260833,140.867714
2.536667,140.833562
2.846111,140.797946
3.193333,140.760791
3.583056,140.722017
4.020278,140.681548
4.510556,140.639306
5.061111,140.595222
5.678611,140.549231
6.371389,140.501279
7.148889,140.451326
8.021389,140.399344
9.0,140.345321
10.098056,140.289263
11.330278,140.231189
12.712778,140.171135
14.264167,140.109152
16.004444,140.045303
17.957222,139.979661
20.148611,139.912308
22.606944,139.843333
25.365556,139.772831
28.460556,139.700895
31.933333,139.627624
35.829722,139.553113
40.201389,139.477456
45.106944,139.400743
50.610833,139.323062
56.786111,139.244496
63.715,139.165124
71.489444,139.085015
80.2125,139.004238
90.0,138.922859
100.981667,138.840933
113.303333,138.758514
127.128333,138.675651
142.640278,138.592386
160.045278,138.508762
179.573611,138.424814
201.485,138.340576
226.069722,138.256077
253.654444,138.171344
284.605,138.086403
316.885,138.006967
349.165,137.935117
381.445,137.869529
413.725,137.809199
446.005,137.753346
478.285,137.701351
510.565,137.652715
542.845,137.607031
575.125,137.563961
607.405,137.523221
639.685,137.484573
671.965,137.447812
704.245,137.412762
736.525,137.379271
768.805,137.347207
801.085,137.316452
833.365,137.286904
865.645,137.258472
897.925,137.231075
930.205,137.204639
962.485,137.1791
994.765,137.154399
1027.045,137.130483
1059.325,137.107302
1091.605,137.084814
1097.8025,137.080573
1104.0,137.076355
1104.01,137.110254
1104.02,137.117914
1104.03,137.121878
1104.044167,137.125348
1104.064722,137.12863
1104.095,137.131828
1104.139167,137.1351
1104.204444,137.138681
1104.3,137.142774
1104.440278,137.147499
1104.646389,137.152921
1104.948611,137.159098
1105.3925,137.166071
1106.043889,137.173991
1107.0,137.182919
1108.403333,137.193001
1110.463333,137.204322
1113.486944,137.216836
1117.924722,137.230267
1124.438889,137.24405
1134.0,137.257325
1148.033889,137.26892
1168.633056,137.277317
1198.868333,137.280571
1231.148333,137.278082
1263.428333,137.272293
1295.708333,137.26455
1327.988333,137.255574
1360.268333,137.24579
1392.548333,137.235469
1424.828333,137.224792
1457.108333,137.213883
1489.388333,137.202833
1521.668333,137.191707
1553.948333,137.180552
1586.228333,137.169405
1618.508333,137.158293
1650.788333,137.147238
1683.068333,137.136255
1715.348333,137.125356
1747.628333,137.11455
1779.908333,137.103846
1789.954167,137.100536
1800.0,137.097236
1800.01,137.070495
1800.02,137.064446
1800.03,137.061311
1800.044167,137.058563
1800.064722,137.055957
1800.095,137.053409
1800.139167,137.05079
1800.204444,137.047911
1800.3,137.0446
1800.440278,137.040753
1800.646389,137.0363
1800.948611,137.031168
1801.3925,137.025286
1802.043889,137.018479
1803.0,137.010615
1804.403333,137.001457
1806.463333,136.990758
1809.486944,136.978293
1813.924722,136.963902
1820.438889,136.947475
1822.219444,136.943619
1824.0,136.939969
1824.01,136.945146
1824.02,136.946301
1824.03,136.94689
1824.044167,136.947395
1824.064722,136.947859
1824.095,136.948292
1824.139167,136.94871
1824.204444,136.949136
1824.3,136.949584
1824.440278,136.950045
1824.646389,136.950493
1824.948611,136.95088
1825.3925,136.951138
1826.043889,136.951178
1827.0,136.950863
1828.403333,136.950014
1830.463333,136.948387
1833.486944,136.945659
1837.924722,136.941424
1844.438889,136.935211
1854.0,136.926502
1868.033889,136.914746
1870.016944,136.913175
1872.0,136.911625
1872.01,136.923171
1872.02,136.925776
1872.03,136.927122
1872.044167,136.928297
1872.064722,136.929404
1872.095,136.930477
1872.139167,136.931568
1872.204444,136.932753
1872.3,136.934096
1872.440278,136.93563
1872.646389,136.937366
1872.948611,136.939307
1873.3925,136.941443
1874.043889,136.943792
1875.0,136.946324
1876.403333,136.949017
1878.463333,136.951802
1881.486944,136.954523
1885.924722,136.9569
1892.438889,136.958499
1902.0,136.958723
1916.033889,136.956819
1918.016944,136.956425
1920.0,136.956008
1920.01,137.023541
1920.02,137.03881
1920.03,137.046719
1920.044167,137.053645
1920.064722,137.060206
1920.095,137.066611
1920.139167,137.073179
1920.204444,137.080384
1920.3,137.088647
1920.440278,137.098216
1920.646389,137.10925
1920.948611,137.121896
1921.3925,137.136287
1922.043889,137.152795
1923.0,137.171651
1924.403333,137.193296
1926.463333,137.218122
1929.486944,137.246353
1933.924722,137.27788
1940.438889,137.312207
1950.0,137.348486
1964.033889,137.385599
1984.633056,137.422205
1988.316389,137.427361
1992.0,137.432202
1992.01,137.390569
1992.02,137.381164
1992.03,137.376299
1992.044167,137.372044
1992.064722,137.368022
1992.095,137.364106
1992.139167,137.360106
1992.204444,137.355737
1992.3,137.350751
1992.440278,137.345008
1992.646389,137.338437
1992.948611,137.330978
1993.3925,137.322598
1994.043889,137.313135
1995.0,137.302543
1996.403333,137.290678
1998.463333,137.277469
2001.486944,137.26299
2005.924722,137.247542
2012.438889,137.231648
2014.219444,137.22819
2016.0,137.225013
2016.01,137.133171
2016.02,137.11239
2016.03,137.101617
2016.044167,137.092171
2016.064722,137.08321
2016.095,137.07444
2016.139167,137.065421
2016.204444,137.055495
2016.3,137.04407
2016.440278,137.03078
2016.646389,137.015373
2016.948611,136.997589
2017.3925,136.977166
2018.043889,136.953487
2019.0,136.926084
2020.403333,136.894153
2022.463333,136.856903
2025.486944,136.813719
2029.924722,136.764388
2036.438889,136.709185
2038.219444,136.696451
2040.0,136.684489
2040.01,136.719133
2040.02,136.726917
2040.03,136.730917
2040.044167,136.734387
2040.064722,136.737627
2040.095,136.740726
2040.139167,136.743818
2040.204444,136.747107
2040.3,136.750746
2040.440278,136.754776
2040.646389,136.75915
2040.948611,136.763763
2041.3925,136.768423
2042.043889,136.772963
2043.0,136.77701
2044.403333,136.780144
2046.463333,136.781759
2049.486944,136.781024
2053.924722,136.776895
2060.438889,136.768235
2070.0,136.754043
2084.033889,136.733663
2104.633056,136.706838
2108.316389,136.702431
2112.0,136.698131
2112.01,136.644268
2112.02,136.632079
2112.03,136.62576
2112.044167,136.620219
2112.064722,136.61496
2112.095,136.609812
2112.139167,136.604516
2112.204444,136.598685
2112.3,136.591969
2112.440278,136.584153
2112.646389,136.575082
2112.948611,136.564599
2113.3925,136.552538
2114.043889,136.538516
2115.0,136.522222
2116.403333,136.503122
2118.463333,136.480638
2121.486944,136.454214
2125.924722,136.423397
2132.438889,136.38784
2134.219444,136.379441
2136.0,136.371474
2136.01,136.430087
2136.02,136.443307
2136.03,136.450134
2136.044167,136.456091
2136.064722,136.461704
2136.095,136.467141
2136.139167,136.472661
2136.204444,136.478648
2136.3,136.485428
2136.440278,136.49316
2136.646389,136.501897
2136.948611,136.511647
2137.3925,136.522355
2138.043889,136.534105
2139.0,136.546768
2140.403333,136.560284
2142.463333,136.57443
2145.486944,136.588709
2149.924722,136.60225
2156.438889,136.613829
2158.219444,136.615951
2160.0,136.617753
2160.01,136.620119
2160.02,136.620661
2160.03,136.620946
2160.044167,136.621201
2160.064722,136.621449
2160.095,136.621701
2160.139167,136.621971
2160.204444,136.622283
2160.3,136.622659
2160.440278,136.62312
2160.646389,136.623689
2160.948611,136.624394
2161.3925,136.625271
2162.043889,136.626369
2163.0,136.627737
2164.403333,136.629425
2166.463333,136.631447
2169.486944,136.633734
2173.924722,136.636062
2180.438889,136.637958
2190.0,136.638629
2204.033889,136.63694
2224.633056,136.631463
2254.868333,136.620583
2287.148333,136.607594
2319.428333,136.594234
2323.714167,136.592458
2328.0,136.590684
2328.01,136.589318
2328.02,136.589006
2328.03,136.588842
2328.044167,136.588697
2328.064722,136.588556
2328.095,136.588414
2328.139167,136.588263
2328.204444,136.58809
2328.3,136.587884
2328.440278,136.587632
2328.646389,136.587324
2328.948611,136.586942
2329.3925,136.586466
2330.043889,136.585861
2331.0,136.585081
2332.403333,136.584058
2334.463333,136.582696
2337.486944,136.580864
2341.924722,136.578375
2348.438889,136.574968
2358.0,136.570262
2372.033889,136.563713
2392.633056,136.554542
2422.868333,136.541671
2435.434167,136.536474
2448.0,136.531353
2448.01,136.494516
2448.02,136.486183
2448.03,136.481864
2448.044167,136.47808
2448.064722,136.474491
2448.095,136.470981
2448.139167,136.467376
2448.204444,136.463412
2448.3,136.458856
2448.440278,136.453563
2448.646389,136.447438
2448.948611,136.440382
2449.3925,136.432301
2450.043889,136.422955
2451.0,136.412166
2452.403333,136.399618
2454.463333,136.384979
2457.486944,136.367957
2461.924722,136.348355
2468.438889,136.326063
2478.0,136.300979
2492.033889,136.272897
2512.633056,136.24139
2542.868333,136.205703
2575.148333,136.174952
2607.428333,136.14863
2639.708333,136.125224
2671.988333,136.103907
2704.268333,136.084176
2736.548333,136.065699
2748.274167,136.059252
2760.0,136.05293
2760.01,136.005491
2760.02,135.99476
2760.03,135.989199
2760.044167,135.984325
2760.064722,135.979702
2760.095,135.975183
2760.139167,135.97054
2760.204444,135.965434
2760.3,135.959565
2760.440278,135.952748
2760.646389,135.944857
2760.948611,135.935767
2761.3925,135.925354
2762.043889,135.913311
2763.0,135.899406
2764.403333,135.883229
2766.463333,135.864354
2769.486944,135.842402
2773.924722,135.817117
2780.438889,135.788357
2790.0,135.755998
2804.033889,135.719795
2824.633056,135.679244
2828.316389,135.672982
2832.0,135.666946
2832.01,135.589209
2832.02,135.571618
2832.03,135.562498
2832.044167,135.554501
2832.064722,135.546913
2832.095,135.539485
2832.139167,135.531844
2832.204444,135.523431
2832.3,135.513745
2832.440278,135.502472
2832.646389,135.489392
2832.948611,135.47428
2833.3925,135.456899
2834.043889,135.436701
2835.0,135.413246
2836.403333,135.385777
2838.463333,135.35348
2841.486944,135.315588
2845.924722,135.271512
2852.438889,135.220846
2862.0,135.163262
2876.033889,135.098359
2896.633056,135.02556
2926.868333,134.944051
2927.434167,134.942714
2928.0,134.941382
2928.01,134.89991
2928.02,134.890514
2928.03,134.885636
2928.044167,134.88135
2928.064722,134.877273
2928.095,134.873267
2928.139167,134.869126
2928.204444,134.864542
2928.3,134.859234
2928.440278,134.853014
2928.646389,134.845733
2928.948611,134.837225
2929.3925,134.8273
2930.043889,134.815568
2931.0,134.801658
2932.403333,134.784964
2934.463333,134.764771
2937.486944,134.740271
2941.924722,134.710599
2948.438889,134.674802
2950.219444,134.666094
2952.0,134.657742
2952.01,134.814144
2952.02,134.849475
2952.03,134.867754
2952.044167,134.883741
2952.064722,134.898856
2952.095,134.91357
2952.139167,134.928604
2952.204444,134.945029
2952.3,134.963781
2952.440278,134.98538
2952.646389,135.010108
2952.948611,135.038189
2953.3925,135.069763
2954.043889,135.105454
2955.0,135.145466
2956.403333,135.190377
2958.463333,135.240521
2961.486944,135.2957
2965.924722,135.354846
2972.438889,135.415956
2982.0,135.476312
2996.033889,135.532821
3016.633056,135.582321
3046.868333,135.621788
3059.434167,135.631955
3072.0,135.639791
3072.01,135.741334
3072.02,135.7643
3072.03,135.776199
3072.044167,135.786624
3072.064722,135.796506
3072.095,135.806163
3072.139167,135.816076
3072.204444,135.826966
3072.3,135.839471
3072.440278,135.853981
3072.646389,135.870749
3072.948611,135.890023
3073.3925,135.912044
3074.043889,135.937425
3075.0,135.966598
3076.403333,136.000341
3078.463333,136.039414
3081.486944,136.08439
3085.924722,136.135431
3092.438889,136.192219
3102.0,136.25401
3116.033889,136.319711
3136.633056,136.387864
3166.868333,136.456526
3199.148333,136.507692
3207.574167,136.518607
3216.0,136.528735
3216.01,136.491794
3216.02,136.48345
3216.03,136.479133
3216.044167,136.475358
3216.064722,136.47179
3216.095,136.468317
3216.139167,136.464769
3216.204444,136.460894
3216.3,136.456473
3216.440278,136.451382
3216.646389,136.445558
3216.948611,136.43895
3217.3925,136.431532
3218.043889,136.423163
3219.0,136.413812
3220.403333,136.403366
3222.463333,136.391792
3225.486944,136.379209
3229.924722,136.36599
3236.438889,136.352777
3246.0,136.34043
3260.033889,136.329882
3280.633056,136.32193
3310.868333,136.316947
3343.148333,136.31493
3375.428333,136.314044
3407.708333,136.31342
3439.988333,136.312708
3472.268333,136.311764
3476.134167,136.311632
3480.0,136.311496
3480.01,136.295261
3480.02,136.291589
3480.03,136.289687
3480.044167,136.288021
3480.064722,136.286442
3480.095,136.284899
3480.139167,136.283317
3480.204444,136.281579
3480.3,136.279584
3480.440278,136.277271
3480.646389,136.2746
3480.948611,136.271534
3481.3925,136.268035
3482.043889,136.264007
3483.0,136.259387
3484.403333,136.254054
3486.463333,136.24789
3489.486944,136.240808
3493.924722,136.232777
3500.438889,136.223828
3510.0,136.214025
3524.033889,136.203413
3544.633056,136.191963
3574.868333,136.179496
3587.434167,136.175175
3600.0,136.171189
3600.01,136.202609
3600.02,136.209711
3600.03,136.213389
3600.044167,136.216609
3600.064722,136.219657
3600.095,136.222631
3600.139167,136.225678
3600.204444,136.229017
3600.3,136.232842
3600.440278,136.237266
3600.646389,136.242358
3600.948611,136.248181
3601.3925,136.254787
3602.043889,136.262339
3603.0,136.270925
3604.403333,136.280727
3606.463333,136.291896
3609.486944,136.304495
3613.924722,136.318425
3620.438889,136.333403
3630.0,136.348988
3644.033889,136.36463
3664.633056,136.379705
3694.868333,136.393514
3727.148333,136.402698
3735.574167,136.404506
3744.0,136.406128
3744.01,136.428628
3744.02,136.433718
3744.03,136.436355
3744.044167,136.438666
3744.064722,136.440857
3744.095,136.442999
3744.139167,136.445198
3744.204444,136.447615
3744.3,136.450392
3744.440278,136.453616
3744.646389,136.457344
3744.948611,136.461633
3745.3925,136.46654
3746.043889,136.472204
3747.0,136.478727
3748.403333,136.486291
3750.463333,136.495077
3753.486944,136.505231
3757.924722,136.516819
3764.438889,136.52981
3774.0,136.544096
3788.033889,136.559506
3808.633056,136.575793
3838.868333,136.592571
3871.148333,136.605322
3903.428333,136.614854
3935.708333,136.622217
3967.988333,136.628005
4000.268333,136.632594
4032.548333,136.636234
4064.828333,136.639106
4097.108333,136.641342
4129.388333,136.643042
4161.668333,136.644286
4193.948333,136.645136
4226.228333,136.645645
4258.508333,136.645853
4265.254167,136.645862
4272.0,136.64586
4272.01,136.773878
4272.02,136.802826
4272.03,136.817822
4272.044167,136.830956
4272.064722,136.843401
4272.095,136.855555
4272.139167,136.868024
4272.204444,136.881708
4272.3,136.89741
4272.440278,136.915608
4272.646389,136.936608
4272.948611,136.960704
4273.3925,136.988169
4274.043889,137.019736
4275.0,137.05589
4276.403333,137.097536
4278.463333,137.145529
4281.486944,137.200464
4285.924722,137.26241
4292.438889,137.330858
4302.0,137.404869
4316.033889,137.483318
4336.633056,137.565078
4366.868333,137.649112
4367.434167,137.650427
4368.0,137.651734
4368.01,137.470555
4368.02,137.429604
4368.03,137.408402
4368.044167,137.389843
4368.064722,137.372275
4368.095,137.355142
4368.139167,137.337596
4368.204444,137.318375
4368.3,137.29637
4368.440278,137.270934
4368.646389,137.241681
4368.948611,137.208265
4369.3925,137.170401
4370.043889,137.127193
4371.0,137.078165
4372.403333,137.022332
4374.463333,136.958894
4377.486944,136.887576
4381.924722,136.809021
4388.438889,136.724891
4390.219444,136.706069
4392.0,136.688589
4392.01,136.810843
4392.02,136.838415
4392.03,136.852651
4392.044167,136.865071
4392.064722,136.876771
4392.095,136.888101
4392.139167,136.899599
4392.204444,136.912065
4392.3,136.926174
4392.440278,136.942256
4392.646389,136.960416
4392.948611,136.980668
4393.3925,137.002899
4394.043889,137.02729
4395.0,137.053609
4396.403333,137.081821
4398.463333,137.111655
4401.486944,137.142477
4405.924722,137.173218
4412.438889,137.2026
4422.0,137.229611
4436.033889,137.253968
4438.016944,137.256613
4440.0,137.259122
4440.01,137.096919
4440.02,137.06025
4440.03,137.041261
4440.044167,137.024635
4440.064722,137.008891
4440.095,136.993528
4440.139167,136.977783
4440.204444,136.960523
4440.3,136.940743
4440.440278,136.917856
4440.646389,136.891496
4440.948611,136.861328
4441.3925,136.827058
4442.043889,136.787826
4443.0,136.743121
4444.403333,136.69193
4446.463333,136.633345
4449.486944,136.566833
4453.924722,136.492557
4460.438889,136.411431
4470.0,136.324897
4484.033889,136.234598
4486.016944,136.224066
4488.0,136.213953
4488.01,136.246564
4488.02,136.253899
4488.03,136.257675
4488.044167,136.260956
4488.064722,136.264028
4488.095,136.266978
4488.139167,136.269938
4488.204444,136.273104
4488.3,136.276635
4488.440278,136.280581
4488.646389,136.28492
4488.948611,136.289579
4489.3925,136.294418
4490.043889,136.299323
4491.0,136.303994
4492.403333,136.308084
4494.463333,136.311032
4497.486944,136.312
4501.924722,136.30981
4508.438889,136.303023
4518.0,136.29015
4532.033889,136.269983
4552.633056,136.2419
4556.316389,136.237189
4560.0,136.232577
4560.01,136.246362
4560.02,136.24947
4560.03,136.251073
4560.044167,136.252472
4560.064722,136.253787
4560.095,136.25506
4560.139167,136.256349
4560.204444,136.257743
4560.3,136.259317
4560.440278,136.261105
4560.646389,136.263114
4560.948611,136.265338
4561.3925,136.267752
4562.043889,136.270355
4563.0,136.273085
4564.403333,136.275872
4566.463333,136.278573
4569.486944,136.280919
4573.924722,136.282462
4580.438889,136.282542
4590.0,136.28029
4604.033889,136.274686
4624.633056,136.264669
4654.868333,136.249296
4687.148333,136.233548
4719.428333,136.218892
4751.708333,136.205323
4783.988333,136.192734
4816.268333,136.181002
4848.548333,136.170013
4880.828333,136.159668
4913.108333,136.149883
4945.388333,136.140587
4956.694167,136.137436
4968.0,136.134335
4968.01,136.19142
4968.02,136.204327
4968.03,136.211011
4968.044167,136.216864
4968.064722,136.222408
4968.095,136.22782
4968.139167,136.233368
4968.204444,136.239453
4968.3,136.246429
4968.440278,136.254506
4968.646389,136.263815
4968.948611,136.274478
4969.3925,136.286605
4970.043889,136.300506
4971.0,136.31637
4972.403333,136.334563
4974.463333,136.355411
4977.486944,136.379098
4981.924722,136.405542
4988.438889,136.434349
4998.0,136.464868
5012.033889,136.496275
5032.633056,136.527632
5062.868333,136.557908
5075.434167,136.567303
5088.0,136.575428
5088.01,136.446913
5088.02,136.417858
5088.03,136.402809
5088.044167,136.389632
5088.064722,136.37715
5088.095,136.364967
5088.139167,136.352476
5088.204444,136.338777
5088.3,136.323071
5088.440278,136.304886
5088.646389,136.283926
5088.948611,136.259916
5089.3925,136.232608
5090.043889,136.201301
5091.0,136.165565
5092.403333,136.124567
5094.463333,136.077554
5097.486944,136.024073
5101.924722,135.964239
5108.438889,135.898788
5118.0,135.828906
5132.033889,135.755929
5152.633056,135.681057
5156.316389,135.670141
5160.0,135.65978
5160.01,135.659124
5160.02,135.658954
5160.03,135.658853
5160.044167,135.65875
5160.064722,135.658633
5160.095,135.65849
5160.139167,135.658307
5160.204444,135.658062
5160.3,135.657724
5160.440278,135.657251
5160.646389,135.656587
5160.948611,135.655649
5161.3925,135.654315
5162.043889,135.652414
5163.0,135.649701
5164.403333,135.64583
5166.463333,135.64033
5169.486944,135.632571
5173.924722,135.62175
5180.438889,135.606898
5190.0,135.586938
5204.033889,135.560806
5206.016944,135.557369
5208.0,135.553989
5208.01,135.574083
5208.02,135.578613
5208.03,135.580952
5208.044167,135.582992
5208.064722,135.584912
5208.095,135.58677
5208.139167,135.588654
5208.204444,135.590694
5208.3,135.592999
5208.440278,135.595621
5208.646389,135.598573
5208.948611,135.601851
5209.3925,135.605422
5210.043889,135.609295
