time,pressure
0.0,85.406399
2.0,69.121544
4.000556,55.304679
6.0,54.121012
7.999722,53.429975
10.000278,52.936377
12.0,52.640219
13.999444,52.245341
16.0,51.949182
17.999444,51.751743
20.000278,51.653023
22.000833,51.455584
23.999722,51.356865
26.000278,51.653023
27.9975,51.258145
29.997778,50.961987
31.998056,50.666796
33.997778,50.370637
35.993333,50.074478
37.9975,49.877039
39.996944,49.6796
41.998056,49.383442
43.9975,49.186002
45.997222,49.087283
47.997222,48.889844
50.0,48.791124
51.999444,48.593685
54.0,48.494966
55.996389,48.297527
57.996667,48.198807
59.997778,48.100087
62.000278,48.001368
63.999722,47.902648
66.001667,47.803929
67.999722,47.705209
70.0,47.60649
71.999722,47.50777
74.001111,47.409051
76.001667,47.212579
78.000278,47.01514
80.000556,47.212579
82.000833,47.01514
83.997778,46.817701
86.000833,46.817701
88.001111,46.718982
89.999722,46.620262
92.000833,46.521542
94.001389,46.422823
96.000833,46.422823
97.999722,46.324103
100.000278,46.324103
102.001389,46.225384
104.000278,46.126664
106.001389,45.929225
108.000556,45.830506
110.000833,45.731786
111.996111,45.731786
114.001667,45.633067
116.001111,45.534347
118.0,45.534347
120.001944,45.435627
122.000556,45.336908
124.0,45.336908
125.999722,45.238188
128.001111,45.139469
130.0,45.040749
132.000833,44.94203
134.001944,45.040749
135.999722,44.94203
138.000833,44.94203
140.000556,44.84331
142.000833,44.84331
144.002778,44.744591
146.000833,44.645871
148.000833,44.547151
150.000278,44.547151
152.0,44.547151
154.000278,44.448432
156.001111,44.448432
158.000556,44.349712
160.000833,44.349712
162.000833,44.250993
163.999722,44.152273
166.000556,44.152273
168.001389,44.053554
170.0025,44.053554
172.001944,43.954834
174.001111,43.954834
176.001111,43.856115
178.001944,43.758363
180.000833,43.758363
181.999722,43.659643
184.001389,43.659643
186.001944,43.659643
188.001111,43.560924
190.001111,43.560924
192.001111,43.462204
194.000556,43.363485
196.001389,43.363485
198.001944,43.264765
200.001389,43.264765
202.000833,43.264765
204.001389,43.166046
206.001389,43.166046
208.000556,43.166046
210.000833,43.067326
212.000556,43.067326
214.000833,42.968607
216.002222,42.968607
218.000833,42.869887
219.998333,42.869887
221.997778,42.869887
223.998056,42.771167
225.998056,42.771167
228.000833,42.672448
230.000278,42.672448
232.000833,42.672448
234.000556,42.672448
235.999722,42.573728
238.000833,42.573728
240.000278,42.573728
242.000833,42.475009
244.001111,42.475009
246.0,42.376289
248.001389,42.376289
250.000278,42.376289
252.000833,42.27757
254.001944,42.27757
256.0,42.27757
257.999722,42.27757
260.000833,42.17885
262.001111,42.17885
264.001389,42.17885
266.001111,42.080131
268.0025,42.080131
269.999722,42.080131
272.000833,41.981411
274.000556,42.080131
276.000278,41.981411
278.001389,41.981411
280.001944,41.981411
282.001667,41.882691
284.000833,41.882691
286.001111,41.882691
288.001667,41.882691
290.001667,41.882691
292.000833,41.882691
294.0,41.783972
296.001944,41.783972
298.001111,41.783972
300.000278,41.685252
302.000278,41.685252
304.000833,41.685252
306.002778,41.586533
308.001111,41.586533
310.0,41.586533
312.001667,41.586533
314.000556,41.586533
316.001389,41.487813
318.000278,41.487813
320.000833,41.389094
322.000278,41.389094
324.001944,41.389094
326.000278,41.389094
328.000278,41.290374
330.001111,41.290374
332.000833,41.290374
334.001389,41.290374
336.000278,41.191655
338.000278,41.191655
340.000833,41.191655
342.001944,41.092935
344.001944,41.092935
346.000278,41.092935
348.001111,41.191655
350.000556,41.191655
352.001111,41.191655
354.001667,41.092935
356.001667,41.092935
358.001111,41.092935
360.001111,40.994216
361.998889,40.895496
364.000556,41.092935
366.001111,40.796776
367.998056,40.994216
369.999167,40.895496
371.997778,40.994216
373.999167,40.796776
375.998056,40.994216
377.999167,40.895496
379.999167,40.895496
382.0,40.895496
383.998889,40.796776
385.9975,40.796776
387.999722,40.698057
390.001111,40.698057
392.001389,40.698057
394.002222,40.698057
396.001111,40.698057
398.001944,40.698057
400.002222,40.698057
402.000556,40.599337
404.001111,40.599337
406.001667,40.599337
408.002778,40.599337
410.001111,40.599337
412.000556,40.500618
414.000278,40.500618
416.001111,40.500618
418.001944,40.500618
420.0,40.500618
422.001389,40.401898
424.003333,40.401898
426.001667,40.401898
428.000278,40.401898
430.001667,40.401898
432.001389,40.401898
434.001111,40.401898
436.001389,40.304147
438.001389,40.304147
440.000833,40.304147
442.000833,40.304147
444.001111,40.304147
446.001944,40.304147
448.002222,40.304147
450.001667,40.304147
452.001944,40.205427
454.001111,40.205427
456.001667,40.205427
458.001389,40.205427
460.0025,40.007988
462.001944,40.106707
464.001111,40.304147
466.001111,40.205427
468.001667,40.106707
470.001389,40.106707
472.001667,40.106707
474.000833,40.106707
476.000833,40.106707
478.001667,40.106707
480.003333,40.007988
482.001944,40.007988
484.001944,40.007988
486.001111,40.304147
490.005833,44.152273
492.0,43.363485
494.0,42.573728
496.000278,42.376289
498.0,42.080131
499.999722,41.783972
502.000278,41.586533
504.0,41.487813
506.0,41.290374
508.000556,41.092935
509.999722,40.994216
512.0,40.895496
513.999722,40.895496
515.999722,40.796776
517.999722,40.698057
520.000833,40.599337
522.0,40.500618
523.999722,40.500618
526.0,40.401898
527.999722,40.304147
530.000278,40.304147
531.996667,40.205427
533.996667,40.106707
535.999722,40.106707
538.0,40.106707
539.999444,40.106707
541.999722,40.007988
543.999722,40.007988
546.000278,40.007988
548.0,40.007988
550.0,40.007988
551.999444,39.909268
554.0,39.909268
556.000278,39.810549
557.997222,39.810549
559.996944,39.711829
561.996667,39.810549
564.000278,39.810549
565.999722,39.61311
568.0,39.711829
569.999722,39.61311
572.0,39.61311
573.999722,39.61311
576.0,39.61311
578.000278,39.51439
581.995556,43.560924
583.999722,42.475009
586.000556,41.981411
587.995833,41.783972
590.000278,41.487813
591.999722,41.290374
594.0,41.092935
596.0,40.994216
598.0,40.796776
600.0,40.698057
602.000278,40.500618
604.000278,40.304147
606.000278,40.205427
607.999722,40.106707
609.999722,40.007988
612.0,39.909268
613.999722,39.909268
615.999722,39.909268
618.000556,39.711829
620.000556,39.61311
622.0,39.61311
624.0,39.51439
626.000556,39.51439
628.000278,39.51439
629.999444,39.415671
632.000556,39.415671
634.000278,39.415671
636.0,39.316951
638.0,39.316951
640.000833,39.218231
642.000278,39.218231
643.999722,39.218231
646.000278,39.316951
648.0,39.119512
650.001111,39.119512
651.996944,39.020792
653.9975,39.020792
655.9975,39.020792
658.001389,38.922073
660.000833,38.922073
662.000833,38.922073
664.001389,38.922073
666.000556,38.823353
668.0,38.823353
670.000833,38.823353
671.999722,38.823353
674.001111,38.724634
676.000556,38.625914
677.999722,38.724634
679.997778,38.724634
681.999444,38.625914
684.000556,38.625914
686.001111,38.625914
688.0,38.625914
690.001111,38.527195
692.001389,38.527195
694.001667,38.527195
696.001389,38.527195
698.001389,38.527195
700.000833,38.428475
702.000556,38.428475
704.000556,38.428475
706.000833,38.428475
708.0,38.329756
710.0,38.329756
712.000278,38.329756
714.001389,38.329756
716.001667,38.231036
718.000556,38.231036
720.000833,38.231036
721.999722,38.231036
724.000833,38.231036
726.000833,38.231036
728.001111,38.428475
730.000833,38.329756
732.000556,38.033597
734.000278,38.033597
736.001111,38.033597
738.000556,38.033597
740.0,38.033597
742.000556,38.033597
744.000556,38.033597
746.000556,38.033597
748.000556,38.033597
750.000833,38.033597
752.000833,38.033597
754.001111,37.934877
756.000556,37.934877
758.000278,37.934877
760.000278,37.934877
762.0,37.934877
764.000278,37.934877
766.001389,37.934877
768.000833,37.836158
770.001389,37.836158
772.000278,37.836158
774.000833,37.836158
776.001389,37.836158
778.000556,37.934877
780.001389,37.934877
782.000833,37.836158
784.000278,37.836158
786.000556,37.836158
788.000556,37.836158
790.000556,37.737438
792.000556,37.737438
794.000278,37.737438
796.000833,37.737438
798.000556,37.737438
800.001111,38.033597
802.000833,37.638719
804.001111,37.638719
806.000278,37.638719
808.000278,37.638719
810.000556,37.638719
812.000833,37.638719
814.001111,37.539999
816.000278,37.638719
818.000556,37.638719
819.998056,37.638719
822.000278,37.638719
824.000556,37.638719
826.000556,37.539999
828.001111,37.539999
830.000833,37.539999
832.0,37.539999
834.000278,37.539999
836.000278,37.539999
838.001111,37.539999
840.001389,37.539999
842.000556,37.539999
844.000278,37.44128
848.000833,41.586533
850.000278,41.487813
852.000833,40.500618
854.0,40.106707
856.000833,39.711829
858.000833,39.415671
860.000278,39.119512
862.000278,38.922073
864.000833,38.823353
866.000278,38.625914
868.000556,38.527195
870.000556,38.428475
872.000556,38.329756
874.000833,38.231036
876.000833,38.132316
878.000833,38.132316
880.001389,38.033597
882.000833,38.033597
884.000556,37.934877
886.000556,37.934877
888.000833,37.934877
890.000833,37.836158
892.000556,37.836158
898.001111,42.672448
900.000833,41.487813
902.000556,40.796776
904.001111,40.500618
906.000278,40.106707
908.000556,40.106707
910.000556,39.51439
912.000556,39.316951
914.001111,39.119512
916.001389,38.922073
918.001111,38.823353
920.000278,38.724634
922.000556,38.625914
924.000833,38.527195
926.0,38.428475
928.000556,38.329756
930.001111,38.231036
932.001389,38.231036
934.000833,38.132316
936.000556,38.132316
938.001389,38.033597
940.000833,38.132316
942.001667,38.033597
944.000833,37.934877
946.001111,37.836158
948.001111,37.836158
950.000833,37.836158
952.001389,37.836158
953.999722,37.836158
956.000833,37.737438
958.000833,37.737438
960.0,37.638719
962.000833,37.638719
964.001389,37.638719
966.000556,37.638719
968.000278,37.539999
970.0,37.638719
972.000278,37.638719
974.000556,37.539999
976.000278,37.539999
978.000278,37.44128
980.0,37.44128
982.0,37.34256
984.000278,37.34256
986.0,37.243841
988.000833,37.243841
989.999722,37.243841
992.000833,37.243841
994.001389,37.243841
996.000833,37.243841
998.000556,37.34256
1000.001111,37.243841
1002.0,37.243841
1004.000556,37.243841
1006.000556,37.243841
1007.999444,37.243841
1010.0,37.243841
1011.999167,37.145121
1013.999167,37.145121
1015.999167,37.145121
1017.998889,37.145121
1019.999444,37.145121
1021.998889,37.145121
1023.998889,37.145121
1025.998889,37.145121
1028.0,37.046401
1029.998889,37.046401
1031.999444,37.046401
1033.999722,37.046401
1035.999444,37.046401
1037.996389,37.046401
1039.999444,37.046401
1041.999722,37.046401
1044.0,37.046401
1045.998889,37.046401
1047.999722,36.947682
1049.999167,37.046401
1051.999444,36.947682
1053.999444,36.947682
1056.0,36.947682
1057.999167,36.947682
1059.999722,36.947682
1061.999722,36.947682
1063.999167,36.947682
1065.999167,36.947682
1067.999167,36.84993
1069.998889,36.947682
1071.999444,36.84993
1073.999167,36.947682
1075.998333,36.84993
1077.999167,36.84993
1079.999167,36.84993
1081.999444,36.84993
1083.999167,36.751211
1085.998889,36.751211
1087.999444,36.751211
1090.0,36.751211
1091.999444,36.751211
1093.999444,36.751211
1095.999722,36.751211
1097.999167,36.751211
1099.999167,36.751211
1101.999444,36.751211
1103.999722,36.751211
1106.0,36.652491
1107.999167,36.652491
1109.999167,36.652491
1111.998889,36.652491
1113.999444,36.652491
1116.000278,36.652491
1118.000278,36.652491
1119.999167,36.652491
1121.999444,36.652491
1124.0,36.652491
1125.999167,36.553771
1127.999167,36.553771
1129.999444,36.652491
1132.004722,36.553771
1133.999722,36.553771
1135.999444,36.553771
1137.999444,36.553771
1139.999444,36.553771
1141.999444,36.455052
1143.999444,36.553771
1146.0,36.455052
1147.999722,36.455052
1150.004444,36.455052
1151.999444,36.455052
1153.998611,36.455052
1155.998611,36.356332
1158.0,36.356332
1159.998889,36.257613
1161.999167,36.356332
1163.999722,36.257613
1165.999722,36.356332
1167.999444,36.356332
1169.999167,36.356332
1171.999167,36.356332
1173.998889,36.356332
1175.998611,36.356332
1177.998611,36.356332
1179.9975,36.356332
1181.998889,36.356332
1183.994722,36.356332
1185.996667,36.356332
1187.9975,36.356332
1189.996389,36.455052
1191.9975,36.455052
1193.997222,36.356332
1195.996944,36.356332
1197.998611,36.356332
1199.997222,36.257613
1201.996944,36.257613
1203.9975,36.356332
1205.997222,36.356332
1207.996944,36.356332
1209.997222,36.257613
1211.9975,36.356332
1213.996944,36.257613
1215.9975,36.257613
1217.997222,36.356332
1219.9975,36.257613
1221.9975,36.257613
1223.998889,36.257613
1225.9975,36.257613
1227.997778,36.257613
1229.997778,36.257613
1231.997222,36.257613
1233.997778,36.257613
1235.9975,36.257613
1237.998333,36.257613
1239.997222,36.257613
1241.998056,36.257613
1243.998333,36.257613
1245.997222,36.257613
1247.997222,36.257613
1249.998056,36.257613
1251.997778,36.257613
1253.996944,36.158893
1255.996944,36.257613
1257.997222,36.158893
1259.9975,36.158893
1261.9975,36.158893
1263.998056,36.158893
1265.998056,36.158893
1267.997778,36.158893
1269.998056,36.060174
1271.998056,36.158893
1273.997778,36.060174
1275.997778,36.060174
1277.997778,36.060174
1279.997778,36.158893
1281.997778,36.060174
1283.998056,36.060174
1285.9975,36.060174
1287.9975,36.060174
1289.997778,36.060174
1291.9975,36.060174
1293.9975,36.060174
1295.998056,35.961454
1297.998333,36.060174
1299.998333,35.961454
1301.997778,35.961454
1303.998611,35.961454
1305.9975,35.961454
1307.9975,35.961454
1309.998056,35.961454
1311.997778,35.862735
1313.998333,35.862735
1315.997778,35.961454
1317.998611,35.862735
1319.998333,35.862735
1321.997778,35.961454
1323.998056,35.862735
1325.997778,35.862735
1327.997778,35.862735
1329.996667,35.862735
1331.996944,35.862735
1333.9975,35.862735
1335.996667,35.764015
1337.995833,35.764015
1339.997222,35.764015
1341.996111,35.764015
1343.996111,35.764015
1345.995833,35.764015
1348.000833,35.665296
1350.001389,35.665296
1352.001389,35.764015
1354.001111,35.665296
1356.000833,35.665296
1358.001389,35.665296
1360.000833,35.665296
1362.001944,35.665296
1364.000833,35.665296
1366.001111,35.665296
1368.001389,35.566576
1369.997222,35.566576
1372.0,35.566576
1374.000556,35.566576
1376.001111,35.665296
1378.001111,35.566576
1380.000556,35.566576
1382.001667,35.566576
1384.000833,35.566576
1386.000833,35.566576
1388.000833,35.566576
1390.000833,35.467856
1392.001111,35.467856
1394.001944,35.566576
1396.001389,35.467856
1398.000833,35.467856
1400.001111,35.467856
1402.001111,35.467856
1404.001111,35.467856
1406.000833,35.467856
1408.000556,35.369137
1410.001111,35.369137
1412.001111,35.467856
1414.001111,35.369137
1416.001111,35.467856
1418.000833,35.270417
1420.001944,35.369137
1422.001111,35.369137
1424.001389,35.369137
1426.001111,35.566576
1428.001111,35.566576
1430.000833,35.467856
1432.000556,35.270417
1434.000833,35.270417
1436.001111,35.467856
1438.001111,35.467856
1440.001667,35.270417
1442.001111,35.270417
1444.000556,35.270417
1446.000833,35.270417
1448.000556,35.566576
1450.000556,35.467856
1452.006944,35.270417
1454.000833,35.270417
1456.000833,35.270417
1458.000833,35.270417
1460.001111,35.270417
1462.000556,35.270417
1464.000833,35.270417
1466.000833,35.270417
1468.000278,35.270417
1470.000833,35.270417
1472.001389,35.270417
1474.000833,35.270417
1476.0,35.270417
1478.000278,35.171698
1480.001389,35.270417
1482.001111,35.171698
1484.000556,35.171698
1486.000556,35.171698
1488.001389,35.171698
1490.001389,35.171698
1492.000833,35.171698
1494.000556,35.171698
1496.001111,35.171698
1498.001111,35.171698
1500.001111,35.171698
1502.000833,35.072978
1504.001111,35.072978
1506.001111,35.072978
1508.000556,35.072978
1510.001111,35.072978
1512.001389,35.072978
1514.000556,35.072978
1516.001111,35.171698
1518.001389,35.171698
1520.001111,35.072978
1522.001389,35.072978
1524.001111,35.072978
1526.001944,34.974259
1528.000833,35.072978
1530.001389,34.974259
1532.000556,34.974259
1534.001111,34.974259
1536.000556,34.974259
1538.001111,34.974259
1540.001111,34.974259
1542.000556,34.974259
1544.001389,34.974259
1546.001389,34.974259
1548.001111,35.369137
1550.001111,35.467856
1552.001667,35.369137
1554.001389,35.270417
1556.000833,35.270417
1558.001389,35.171698
1560.000833,35.171698
1562.001111,35.171698
1564.001389,35.072978
1566.000556,35.072978
1568.000833,35.072978
1570.001111,35.072978
1572.001111,35.072978
1574.001389,35.072978
1576.001111,34.974259
1578.001111,34.974259
1580.001389,34.974259
1582.001944,34.77682
1584.000556,34.875539
1586.001389,34.974259
1588.0,34.77682
1592.001389,35.369137
1594.000833,35.270417
1596.001667,35.270417
1598.001389,35.270417
1600.000556,35.270417
1602.000833,35.171698
1604.001389,35.171698
1606.001111,35.072978
1608.001667,35.072978
1610.000833,35.072978
1612.001111,35.072978
1614.001389,35.072978
1616.001667,34.974259
1618.000833,34.974259
1620.000556,34.875539
1622.000833,34.875539
1624.000833,34.77682
1625.999167,34.6781
1628.005278,34.6781
1629.999444,34.579381
1631.998611,34.480661
1633.998611,34.381941
1635.998333,34.283222
1637.9975,34.283222
1639.997778,34.184502
1641.9975,34.184502
1643.996667,34.085783
1645.997222,34.085783
1647.997222,33.987063
1649.997222,33.987063
1651.998056,33.888344
1653.997222,33.888344
1655.996944,33.888344
1657.9975,33.888344
1659.998333,34.283222
1661.998333,34.974259
1663.993889,35.566576
1665.997778,36.060174
1667.996667,35.764015
1669.997222,35.467856
1671.997222,35.270417
1673.997222,35.072978
1675.997222,34.875539
1677.9975,34.77682
1679.9975,34.6781
1681.997778,34.480661
1683.994167,34.381941
1685.994167,34.283222
1687.997222,34.184502
1689.997222,34.184502
1691.997222,34.085783
1693.997778,34.085783
1695.997778,34.085783
1697.9975,34.085783
1699.997222,34.085783
1701.997222,33.987063
1703.9975,33.987063
1705.9975,33.987063
1707.997222,33.987063
1709.9975,33.493465
1711.997778,33.592185
1713.997778,33.493465
1715.997778,33.592185
1717.997778,33.493465
1719.998056,33.493465
1721.9975,33.493465
1723.9975,33.493465
1725.998056,33.493465
1727.997778,33.493465
1729.997222,33.493465
1731.9975,33.493465
1733.995833,33.493465
1735.997778,33.395714
1737.9975,33.493465
1739.997778,33.493465
1741.997778,33.395714
1743.9975,33.395714
1745.996667,33.395714
1747.997778,33.395714
1749.997222,33.395714
1751.9975,33.395714
1753.997778,33.395714
1755.997778,33.296994
1757.998056,33.493465
1759.997222,33.493465
1761.9975,33.296994
1763.997778,33.296994
1765.9975,33.296994
1767.997778,33.296994
1769.997222,33.296994
1771.997222,33.296994
1773.997778,33.296994
1775.9975,33.296994
1777.998056,33.296994
1779.997778,33.296994
1781.997222,33.296994
1783.998056,33.296994
1785.997222,33.296994
1787.998333,33.296994
1789.997778,33.296994
1791.9975,33.296994
1793.997222,33.099555
1795.996944,33.296994
1797.998056,33.198275
1799.996389,33.198275
1801.996111,33.198275
1803.996111,33.198275
1806.001667,33.198275
1808.001944,33.198275
1810.001389,33.099555
1812.001667,33.099555
1814.001667,33.493465
1816.001944,33.099555
1818.001111,33.099555
1820.001389,33.099555
1822.001944,33.099555
1824.002222,33.000836
1826.001667,33.000836
1828.001667,33.099555
1830.001667,33.000836
1832.001111,33.000836
1834.001111,33.000836
1836.001389,33.000836
1838.001111,33.000836
1840.001667,32.902116
1842.001389,32.902116
1844.001667,32.902116
1846.001667,33.000836
1848.001944,32.902116
1850.000833,32.902116
1852.001667,32.902116
1854.001667,32.902116
1856.001944,32.902116
1858.001667,34.579381
1860.001944,37.145121
1861.993889,36.455052
1864.002222,35.764015
1866.001667,35.270417
1868.001389,35.072978
1869.996111,34.77682
1872.002222,34.579381
1873.999167,34.381941
1876.002222,34.283222
1878.001111,34.085783
1880.002222,33.987063
1882.001944,33.888344
1884.001389,33.789624
1886.001667,33.690905
1888.001944,33.690905
1890.002222,33.592185
1892.001944,33.493465
1894.002222,33.493465
1896.001944,33.395714
1898.0025,33.395714
1900.002222,33.296994
1902.002222,33.296994
1904.001667,33.296994
1906.001944,33.198275
1908.001944,33.099555
1910.001667,33.099555
1912.0025,33.099555
1914.001944,33.000836
1916.002778,33.000836
1918.0025,33.000836
1920.002222,32.902116
1922.001944,32.902116
