time,pressure
0.0,129.968619
0.25,128.129725
0.5,126.097264
0.75,124.645506
1.0,123.484099
1.5,121.161286
2.0,119.322393
3.0,116.128525
4.0,113.418576
5.0,111.386115
6.0,109.934357
7.0,109.450438
8.0,109.063302
9.0,108.676167
10.0,108.192247
11.0,107.51476
12.0,106.934057
13.0,106.450138
14.0,105.966218
15.0,105.675867
16.0,104.99838
18.0,104.224109
19.0,103.643405
22.083333,101.901296
24.75,101.320592
31.166667,98.804212
35.333333,97.739589
38.5,96.578183
42.083333,95.51356
45.833333,94.158586
49.25,92.706828
51.833333,91.932557
54.0,92.126125
57.666667,91.351854
60.583333,90.867934
62.333333,90.674367
64.0,90.480799
66.833333,89.996879
70.25,89.706528
72.416667,92.803612
76.166667,91.932557
82.083333,90.867934
84.0,90.674367
86.666667,90.190447
93.833333,89.51296
117.833333,87.964418
141.833333,86.996579
165.833333,86.319092
189.833333,85.738389
213.833333,85.448037
237.833333,85.25447
261.833333,84.867334
285.833333,84.480199
309.833333,84.480199
333.833333,84.383415
357.833333,84.189847
381.833333,84.286631
405.833333,84.286631
429.833333,84.383415
453.833333,84.383415
477.833333,83.996279
501.833333,83.802712
525.833333,83.802712
549.833333,83.802712
573.833333,83.802712
597.833333,83.802712
621.833333,83.802712
645.833333,83.996279
669.833333,83.609144
693.833333,79.931357
717.833333,76.931057
741.833333,75.76965
765.833333,74.608244
789.833333,72.76935
813.833333,72.285431
837.833333,73.25327
861.833333,73.930757
885.833333,71.898295
909.833333,71.898295
933.833333,70.930457
957.833333,70.446537
981.833333,69.962618
1005.833333,69.672266
1029.833333,69.381915
1053.833333,70.059402
1077.833333,68.801211
1101.833333,68.414076
1125.833333,69.478699
1149.833333,70.349753
1173.833333,69.672266
1197.833333,68.607644
1221.833333,68.02694
1245.833333,67.543021
1269.833333,67.25267
1293.833333,67.155886
1317.833333,66.865534
1341.833333,66.575182
1365.833333,66.381615
1389.833333,66.091263
1413.833333,65.994479
1437.833333,65.800911
1461.833333,65.51056
1485.833333,65.413776
1509.833333,65.316992
1533.833333,65.123424
1557.833333,65.02664
1581.833333,65.123424
1605.833333,65.02664
1629.833333,65.123424
1653.833333,65.02664
1677.833333,67.059102
1701.833333,66.962318
1725.833333,65.704128
1749.833333,65.413776
1773.833333,65.220208
1797.833333,65.123424
1821.833333,65.123424
1845.833333,65.123424
1869.833333,65.02664
1893.833333,65.02664
1917.833333,64.929857
1941.833333,65.02664
1965.833333,64.736289
1989.833333,64.639505
2013.833333,64.542721
2037.833333,64.639505
2061.833333,64.445937
2085.833333,64.155586
2109.833333,64.252369
2133.833333,64.155586
2157.833333,63.962018
2181.833333,63.865234
2205.833333,63.76845
2229.833333,63.574882
2253.833333,63.187747
2277.833333,62.897395
2301.833333,62.607044
2325.833333,62.607044
2349.833333,62.316692
2373.833333,62.219908
2397.833333,61.639205
2421.833333,61.735989
2445.833333,61.542421
2469.833333,61.348853
2493.833333,61.445637
2517.833333,61.832773
2541.833333,61.735989
2565.833333,61.639205
2589.833333,61.639205
2613.833333,61.832773
2637.833333,61.929557
2661.833333,61.735989
2685.833333,61.735989
2709.833333,62.123124
2733.833333,62.413476
2757.833333,62.413476
2781.833333,62.703828
2805.833333,62.703828
2829.833333,62.897395
2853.833333,62.607044
2877.833333,62.413476
2901.833333,62.607044
2925.833333,62.51026
2949.833333,62.994179
2973.833333,62.994179
2997.833333,63.187747
3021.833333,62.994179
3045.833333,64.929857
3069.833333,65.02664
3093.833333,64.833073
3117.833333,64.445937
3141.833333,64.155586
3165.833333,62.703828
3189.833333,61.542421
3213.833333,61.639205
3237.833333,60.961718
3261.833333,60.381015
3285.833333,62.994179
3309.833333,64.058802
3333.833333,58.251769
3357.833333,57.864634
3381.833333,56.993579
3405.833333,56.316092
3429.833333,56.219308
3453.833333,56.219308
3477.833333,70.640105
3501.833333,77.802112
3525.833333,77.124624
3549.833333,63.962018
3573.833333,59.897095
3597.833333,57.477498
3621.833333,56.122524
3645.833333,54.961118
3669.833333,54.186847
3693.833333,52.928656
3717.833333,51.476898
3741.833333,50.315492
3765.833333,49.154085
3789.833333,48.186247
3813.833333,47.218408
3837.833333,46.734489
3861.833333,46.637705
3885.833333,46.250569
3909.833333,45.863434
3933.833333,45.669866
3957.833333,47.315192
3981.833333,46.831273
4005.833333,46.153785
4029.833333,45.76665
4053.833333,45.573082
4077.833333,45.282731
4101.833333,45.476298
4125.833333,52.541521
4149.833333,47.315192
4173.833333,47.02484
4197.833333,46.540921
4221.833333,46.153785
4245.833333,45.76665
4269.833333,45.573082
4293.833333,45.379514
4317.833333,45.476298
4341.833333,45.476298
4365.833333,45.185947
4389.833333,45.282731
4413.833333,45.185947
4437.833333,45.282731
4461.833333,45.282731
4485.833333,45.476298
4509.833333,45.76665
4533.833333,47.121624
4557.833333,53.606144
4581.833333,50.50906
4605.833333,49.541221
4629.833333,49.250869
4653.833333,48.863734
4677.833333,48.573382
4701.833333,48.186247
4725.833333,48.089463
4749.833333,47.895895
4773.833333,47.799111
4797.833333,47.702327
4821.833333,47.799111
4845.833333,47.411976
4869.833333,47.121624
4893.833333,46.928056
4917.833333,46.928056
4941.833333,46.153785
4965.833333,46.540921
4989.833333,46.928056
5013.833333,46.637705
5037.833333,46.444137
5061.833333,46.153785
5085.833333,46.250569
5109.833333,47.799111
5133.833333,47.702327
5157.833333,56.606444
5181.833333,56.122524
5205.833333,55.057902
5229.833333,55.348253
5253.833333,55.348253
5277.833333,56.219308
5301.833333,56.412876
5325.833333,56.800011
5349.833333,57.283931
5373.833333,56.896795
5397.833333,56.800011
5421.833333,55.928956
5445.833333,55.638605
5469.833333,55.445037
5493.833333,55.928956
5517.833333,56.606444
5541.833333,56.122524
5565.833333,55.928956
5589.833333,55.251469
5613.833333,54.961118
5637.833333,57.671066
5661.833333,57.671066
5685.833333,55.057902
5709.833333,53.799711
5733.833333,53.02544
5757.833333,52.638305
5781.833333,52.154385
5805.833333,51.864034
5829.833333,51.76725
5853.833333,53.896495
5877.833333,56.219308
5901.833333,56.703227
5925.833333,59.50996
5949.833333,64.445937
5973.833333,66.188047
5997.833333,61.542421
6021.833333,59.122824
6045.833333,57.961418
6069.833333,59.606744
6093.833333,59.316392
6117.833333,58.929257
6141.833333,58.929257
6165.833333,58.735689
6189.833333,58.929257
6213.833333,59.606744
6237.833333,60.187447
6261.833333,60.284231
6285.833333,60.187447
6309.833333,60.090663
6333.833333,60.671366
6357.833333,60.671366
6381.833333,61.929557
6405.833333,60.961718
6429.833333,60.187447
6453.833333,60.187447
6477.833333,60.090663
6501.833333,60.090663
6525.833333,59.800311
6549.833333,59.897095
6573.833333,62.413476
6597.833333,60.76815
6621.833333,60.284231
6645.833333,60.284231
6669.833333,60.284231
6693.833333,60.284231
6717.833333,60.187447
6741.833333,62.316692
6765.833333,61.445637
6789.833333,61.058502
6813.833333,61.252069
6837.833333,61.252069
6861.833333,61.155286
6885.833333,61.348853
6981.833333,64.252369
7005.833333,63.76845
7029.833333,64.542721
7053.833333,64.542721
7077.833333,62.413476
7101.833333,60.671366
7125.833333,64.349153
7149.833333,69.188347
7173.833333,67.833373
7197.833333,65.02664
7221.833333,68.02694
7245.833333,62.607044
7269.833333,60.477798
7293.833333,59.413176
7317.833333,58.445337
7341.833333,57.671066
7365.833333,57.283931
7389.833333,56.606444
7413.833333,56.02574
7437.833333,55.735389
7461.833333,57.574282
7485.833333,55.832173
7509.833333,55.154686
7533.833333,57.961418
7557.833333,59.897095
7581.833333,58.542121
7605.833333,56.412876
7629.833333,55.251469
7653.833333,54.573982
7677.833333,54.380415
7701.833333,54.477198
7725.833333,54.090063
7749.833333,53.702927
7773.833333,53.315792
7797.833333,52.928656
7821.833333,52.831873
7845.833333,53.412576
7869.833333,53.219008
7893.833333,53.122224
7917.833333,54.76755
7941.833333,53.50936
7965.833333,52.735089
7989.833333,53.219008
8013.833333,52.541521
8037.833333,57.477498
8061.833333,56.316092
8085.833333,53.02544
8109.833333,51.76725
8133.833333,51.283331
8157.833333,50.896195
8181.833333,50.412276
8205.833333,50.315492
8229.833333,49.928356
8253.833333,49.831573
8277.833333,50.315492
8301.833333,50.605844
8325.833333,50.896195
8349.833333,50.992979
8373.833333,50.992979
8397.833333,51.960818
8421.833333,52.541521
8445.833333,53.799711
8469.833333,53.315792
8493.833333,53.219008
8517.833333,53.315792
8541.833333,53.50936
8565.833333,53.702927
8589.833333,53.702927
8613.833333,53.799711
8637.833333,53.799711
8661.833333,53.606144
8685.833333,53.606144
8709.833333,53.315792
8733.833333,53.02544
8757.833333,52.928656
8781.833333,52.638305
8805.833333,52.251169
8829.833333,50.315492
8853.833333,49.638005
8877.833333,48.960518
8901.833333,48.476598
8925.833333,47.992679
8949.833333,47.799111
8973.833333,47.799111
8997.833333,47.702327
9021.833333,47.411976
9045.833333,47.315192
9069.833333,47.218408
9093.833333,47.121624
9117.833333,46.928056
9141.833333,46.831273
9165.833333,46.540921
9189.833333,46.444137
9213.833333,46.637705
9237.833333,47.121624
9261.833333,46.928056
9285.833333,46.347353
9309.833333,46.153785
9333.833333,46.057002
9357.833333,46.347353
