time,pressure
0.0,39.321317
2.066667,75.454608
2.7,108.756003
4.05,140.918251
7.816667,176.083703
9.666667,207.741708
11.283333,223.897839
13.116667,243.458828
14.133333,221.256607
17.166667,183.286359
20.033333,153.500154
21.733333,130.806272
23.783333,112.517024
25.1,96.242816
27.883333,83.842866
29.166667,71.958774
31.916667,64.012819
32.6,58.849399
34.666667,56.819841
37.083333,53.886322
39.133333,52.518766
41.65,51.364134
43.2,50.639223
45.6,50.22402
47.016667,49.791396
50.116667,49.463299
52.483333,49.178755
54.183333,48.95228
55.933333,48.714192
57.633333,48.476104
59.1,48.232208
61.5,47.988313
62.85,47.726996
66.066667,47.441484
67.133333,47.132743
69.533333,46.81626
72.316667,46.47171
74.0,46.156194
76.133333,45.848421
78.216667,45.557102
81.333333,45.315142
83.916667,45.167063
85.666667,45.076086
88.283333,45.052858
90.366667,45.05189
91.866667,45.052858
92.9,45.009305
96.35,44.876711
100.033333,44.711211
100.75,44.520547
104.55,44.40731
104.883333,44.253423
108.833333,44.144058
109.983333,44.07147
114.816667,44.070502
115.116667,44.065663
131.533333,44.064695
135.083333,44.086955
135.533333,44.146961
139.016667,44.265037
140.983333,44.434409
143.016667,44.740246
145.033333,45.109961
146.45,45.501935
149.016667,45.860036
150.733333,46.277174
152.766667,46.653663
154.516667,47.019506
155.866667,47.456002
161.0,47.852815
162.75,48.100582
164.766667,48.172202
165.816667,48.199302
170.85,48.179945
171.85,48.12865
174.8,48.077354
176.85,48.059933
178.533333,48.078322
179.9,48.102518
181.9,48.163492
185.35,48.260276
187.716667,48.368674
190.9,48.460618
192.916667,48.538045
195.55,48.593212
197.033333,48.657089
199.133333,48.720967
200.783333,48.869046
203.2,49.111974
209.35,49.348126
211.483333,49.486527
212.266667,49.611378
217.4,49.746876
218.8,49.850435
221.166667,49.907537
222.55,49.997546
225.0,50.098201
228.9,50.217245
231.833333,50.304351
232.216667,50.395328
235.083333,50.480498
236.866667,50.580185
239.35,50.682776
240.75,50.706004
242.433333,50.974095
245.183333,54.038273
248.983333,61.980357
251.05,72.061365
253.483333,80.247345
254.566667,87.878754
257.0,93.666429
258.416667,101.314291
261.683333,105.258233
263.783333,102.242448
264.833333,94.988497
266.9,90.118332
269.283333,83.142151
272.0,77.3748
272.983333,69.85179
275.083333,65.264234
277.116667,59.357514
279.233333,53.598874
281.7,48.950345
285.8,46.403961
287.866667,45.716795
289.283333,45.653886
291.533333,45.686792
293.4,45.738088
294.416667,45.810676
297.2,45.912299
298.6,46.052635
300.75,46.253946
303.533333,46.512359
304.2,46.92369
308.183333,47.20146
322.35,46.768836
327.266667,46.349762
330.05,46.57914
331.85,47.230495
333.966667,47.69409
335.683333,48.170267
337.383333,48.718063
340.466667,49.214565
341.516667,49.665577
343.266667,50.289833
345.683333,51.07959
348.15,51.941934
351.533333,52.649424
353.05,53.361753
353.85,54.289911
360.166667,55.28872
362.216667,56.035892
364.266667,56.45303
365.983333,56.921464
367.7,57.409255
369.416667,57.934791
371.833333,58.411936
373.65,59.063291
378.6,59.765942
380.316667,60.43859
382.383333,60.939931
384.4,61.493534
386.116667,61.992939
386.8,62.528154
389.15,63.145635
391.2,63.964427
394.583333,64.790961
396.333333,65.410378
397.35,65.715247
398.766667,66.091736
402.616667,66.55146
403.333333,67.042154
406.233333,67.419611
407.65,67.816425
409.333333,68.228724
412.033333,68.785231
414.133333,69.396905
415.816667,70.123752
418.566667,70.754783
419.183333,71.373232
422.983333,71.758432
423.316667,72.148471
425.416667,72.531735
428.583333,72.986619
429.283333,73.356334
431.95,73.815089
434.5,74.58065
438.933333,75.533971
439.966667,76.475678
444.066667,77.234463
446.833333,77.80936
448.883333,78.161653
450.25,78.523625
452.666667,78.933988
454.716667,79.289185
456.45,79.470171
458.833333,79.650189
460.5,80.073134
464.0,80.148626
466.35,79.698581
470.816667,78.080354
473.216667,77.069931
475.6,75.768188
479.0,74.583553
480.733333,74.02511
482.85,74.314494
483.55,74.959075
485.266667,75.491386
487.533333,76.330502
491.25,77.041863
491.6,77.637084
494.666667,77.946793
495.35,78.112293
499.133333,79.619218
513.6,81.826858
515.7,83.583485
519.116667,83.985138
520.8,84.500996
523.916667,85.033308
527.266667,85.510452
529.95,85.915977
531.0,86.382475
533.65,86.937046
534.85,87.578724
537.516667,88.26976
539.616667,89.065324
543.666667,89.616992
544.716667,90.08349
547.483333,90.592573
551.6,91.159727
553.983333,91.474274
554.25,91.680424
556.783333,92.347265
558.8,93.084758
564.983333,93.943231
566.6,94.647818
571.733333,96.307661
575.166667,97.001601
578.916667,97.558109
581.583333,97.948148
583.333333,98.264631
585.35,98.59176
587.716667,98.895662
589.85,99.332157
590.2,100.245797
596.7,101.451724
602.2,102.3131
603.533333,102.700236
605.666667,102.908321
606.433333,103.215126
607.566667,103.694206
614.2,104.34169
616.266667,104.88368
617.983333,106.380926
635.033333,108.038834
635.7,109.138299
639.216667,109.658028
640.3,109.945476
642.4,110.310352
645.2,110.70523
647.633333,111.304322
651.533333,111.930514
655.083333,112.833507
655.716667,113.252581
658.75,113.786828
660.45,114.490447
662.883333,114.467219
665.033333,113.436471
666.516667,111.763077
668.266667,110.025807
670.766667,107.465874
676.05,104.359111
677.466667,102.878318
679.266667,102.551189
681.35,102.591838
683.116667,102.476665
686.05,102.484408
686.416667,102.286001
689.266667,101.829181
692.066667,101.346229
695.216667,101.190407
697.616667,101.181697
698.316667,100.959094
701.383333,100.508081
704.133333,99.999966
705.866667,99.731874
706.95,99.489915
710.15,99.29054
711.233333,98.971153
715.666667,98.595632
720.1,98.514333
720.816667,98.458199
723.583333,98.450456
724.65,98.270438
726.816667,97.994604
731.066667,97.699413
732.5,97.623922
735.333333,97.535848
737.083333,97.424547
738.916667,97.404222
739.966667,97.699413
745.05,98.165911
745.75,98.732097
749.083333,99.274087
750.45,99.697032
753.766667,99.777363
756.266667,99.778331
759.25,99.696064
762.7,99.234405
766.183333,98.532722
768.966667,98.384643
770.0,98.356576
773.533333,98.257856
775.266667,98.207528
775.983333,98.236564
779.116667,98.463038
783.283333,98.66822
784.733333,98.695319
787.333333,98.477555
803.033333,98.236564
803.733333,97.950083
807.35,97.707156
808.45,97.419708
811.3,97.425515
812.683333,97.532945
817.316667,97.551334
817.666667,97.364541
819.916667,97.093546
822.516667,96.974502
822.883333,96.999666
826.033333,97.0829
828.416667,96.935788
832.616667,96.647372
834.4,96.509939
835.516667,96.539942
838.266667,96.580591
841.4,96.574784
841.766667,96.369603
844.483333,96.116997
846.65,95.985371
848.016667,96.076348
849.433333,96.121836
852.533333,96.062798
855.333333,95.744379
856.783333,95.449188
859.05,95.384343
861.183333,95.435638
863.3,95.436606
865.4,95.389182
866.816667,95.156901
869.133333,94.926555
871.183333,94.880099
872.183333,94.892681
874.883333,94.91107
877.683333,94.796865
879.4,94.49006
879.766667,94.191966
882.2,94.097117
885.383333,94.122281
886.466667,94.14067
889.466667,94.007108
891.5,93.694496
893.2,93.453505
895.583333,93.440923
896.233333,93.493186
901.45,93.259937
903.516667,92.880544
907.383333,92.682137
909.116667,92.691816
911.666667,92.757629
913.066667,92.67633
915.616667,92.406303
916.8,92.141115
918.583333,92.133373
921.6,92.211768
923.0,92.256288
924.016667,92.175957
927.466667,91.816889
929.183333,91.486856
931.216667,91.451046
933.316667,91.457821
935.75,91.507181
937.016667,91.394912
939.05,91.067782
940.416667,90.763881
943.483333,90.760977
944.133333,90.839372
949.983333,90.702907
951.35,90.439655
953.416667,90.1464
970.933333,89.739907
972.633333,89.251149
976.683333,89.038224
979.2,89.472784
985.4,90.342871
986.8,90.842276
989.033333,90.900346
989.716667,91.331034
993.0,91.854635
993.7,92.401464
997.166667,92.300809
999.55,92.144987
1002.65,92.117887
1004.016667,92.597935
1007.566667,93.087662
1008.616667,93.414791
1011.55,93.460279
1013.416667,93.423502
1013.766667,93.428341
1017.55,93.475765
1017.9,93.594809
1019.6,93.628683
1022.016667,93.33446
1023.85,92.830216
1027.316667,92.881512
1027.683333,93.001524
1031.266667,93.028623
1033.016667,92.964746
1035.116667,92.670523
1036.5,92.33178
1036.85,92.234996
1040.0,92.275645
1042.5,92.333715
1043.916667,92.301777
1046.35,91.937869
1048.5,91.545894
1051.083333,91.392976
1053.183333,91.414268
1055.25,91.422011
1057.733333,91.130692
1058.083333,90.917767
1058.75,90.742588
1061.516667,90.618705
1064.283333,89.975092
1066.333333,89.390518
1067.0,88.822396
1070.15,88.099421
1073.05,87.56227
1074.666667,87.144164
1076.616667,86.651534
1077.433333,86.453127
1080.4,86.417317
1082.183333,86.44732
1084.633333,86.094059
1088.333333,85.391408
1090.783333,85.209454
1091.133333,85.181387
1094.966667,85.163966
1096.816667,84.918135
1099.583333,84.566809
1103.05,84.337432
1104.766667,84.33356
1106.15,84.385824
1107.5,84.372274
1111.0,84.126443
1112.716667,83.873837
1114.85,83.842866
1116.633333,83.979331
1117.666667,84.104183
1120.216667,84.159349
1122.4,84.100311
1139.316667,83.981267
1139.666667,83.97546
1142.916667,84.137089
1143.633333,84.182577
1146.916667,84.03837
1149.033333,83.862223
1150.466667,83.89029
1153.283333,84.002559
1155.016667,84.136121
1156.066667,84.197095
1158.533333,84.065469
1160.3,83.851577
1161.366667,83.802217
1163.8,84.016109
1166.85,84.183545
1169.383333,84.06934
1172.266667,83.835123
1173.633333,83.810927
1175.366667,84.040305
1180.283333,84.149671
1182.05,84.031595
1184.75,83.86803
1186.083333,83.859319
1188.2,84.063533
1190.85,84.139025
1194.8,84.005463
1196.2,83.834156
1198.333333,83.89029
1200.816667,84.037402
1202.9,84.193224
1203.516667,84.211613
1206.383333,84.037402
1207.1,83.859319
1210.266667,83.899001
1212.75,84.04708
1214.516667,84.134186
1216.716667,84.035466
1220.616667,83.900936
1222.066667,83.929004
1227.583333,84.150639
1229.433333,84.214516
1229.8,84.078051
1233.033333,83.943521
1234.766667,83.966749
1237.233333,84.077083
1238.316667,84.228066
1240.166667,84.14096
1243.216667,83.811895
1245.0,83.835123
1247.15,83.93965
1249.183333,84.048048
1251.133333,84.17677
1252.916667,84.127411
1254.75,84.122571
1259.35,84.215484
1260.8,84.483575
1262.9,84.699403
1265.2,84.782638
1265.95,84.676175
1268.133333,84.602619
1271.3,84.730374
1273.033333,84.907489
1275.533333,85.047825
1277.35,85.01879
1278.466667,84.916199
1281.4,84.866839
1282.5,85.040083
1285.166667,85.225908
1286.35,85.38173
1289.2,85.379794
1291.3,85.540455
1292.65,86.661212
1299.116667,87.687121
1299.566667,88.101356
1303.016667,88.051029
1305.366667,88.102324
1306.783333,88.158459
1309.316667,88.217497
1311.533333,88.23879
1313.283333,88.040383
1314.733333,87.643569
1332.7,87.444194
1335.666667,87.423869
1337.366667,87.228366
1339.216667,87.024152
1341.683333,87.005763
1344.05,87.200299
1347.516667,87.28934
1348.583333,87.091901
1350.966667,86.755093
1353.716667,86.909947
1356.85,87.148035
1359.266667,87.23998
1360.683333,87.099643
1363.333333,86.932207
1365.55,86.897365
1367.833333,87.021248
1369.666667,87.138357
1371.983333,87.165456
1373.716667,87.032863
1374.4,86.861555
1377.216667,86.876073
1379.9,87.026088
1383.583333,87.111257
1384.25,86.951564
1388.05,86.729929
1388.833333,86.667987
1391.25,86.809292
1392.966667,86.967049
1395.516667,87.03383
1397.75,86.930272
1399.083333,86.883815
1401.5,87.509039
1408.333333,87.995862
1409.45,88.047158
1411.65,87.932953
1413.966667,87.972634
1415.416667,88.087807
1417.083333,88.234918
1420.116667,88.146845
1422.166667,87.994894
1426.233333,87.922306
1427.95,88.070386
1429.0,88.160395
1432.066667,88.170073
1433.766667,88.112971
1435.516667,88.186526
1437.85,88.461392
1439.2,88.805943
1442.216667,88.991768
1443.05,89.05371
1445.8,89.035321
1446.466667,89.153397
1449.066667,89.824109
1454.133333,89.928636
1454.85,89.922829
1457.933333,90.133818
1460.35,90.256733
1460.716667,90.414491
1463.45,90.528696
1478.983333,90.127043
1480.65,90.145432
1482.016667,90.191888
1484.416667,90.288672
1485.116667,90.372874
1488.783333,90.235441
1490.133333,89.997353
1493.116667,89.877341
1494.833333,89.931539
1495.166667,90.03897
1498.216667,90.165756
1500.6,90.106718
1502.25,89.881212
1504.283333,89.731197
1507.333333,89.777653
1509.366667,89.839595
1511.383333,89.854112
1513.066667,89.72539
1515.083333,89.341158
1515.533333,89.258892
1519.066667,89.347933
1519.75,89.472784
1522.083333,89.524079
1525.116667,89.343094
1526.816667,88.980154
1529.166667,88.984993
1531.183333,89.076938
1533.2,89.146622
1535.2,89.192111
1536.9,89.126298
1539.466667,88.670446
1541.283333,88.683028
1543.016667,88.724645
1545.05,88.824332
1545.733333,88.888209
1549.1,88.706256
1550.816667,88.45365
1553.25,88.430422
1554.916667,88.481717
1556.3,88.558176
1559.333333,88.611407
1561.416667,88.465264
1563.6,88.234918
1565.1,88.051029
1566.116667,88.000701
1569.133333,88.074257
1569.75,87.944567
1575.783333,87.485811
1577.133333,87.30289
1579.35,87.322246
1580.016667,87.304825
1582.766667,87.387091
1583.8,87.274822
1587.5,86.969953
1589.35,86.666052
1591.05,86.651534
1593.183333,86.67573
1595.233333,86.588625
1596.666667,86.325372
1604.366667,86.117287
1607.433333,86.190843
1608.916667,86.156001
1611.483333,85.899523
1613.5,85.687567
1616.466667,85.724345
1619.1,85.819193
1621.283333,85.749508
1623.35,85.466899
1625.083333,85.324627
1641.85,85.473674
1645.25,85.440768
1647.65,85.166869
1648.366667,84.91136
1650.75,84.979109
1653.266667,85.093314
1655.733333,85.259782
1656.383333,85.122349
1659.483333,85.013951
1660.016667,85.514324
1663.433333,87.008667
1665.083333,88.612375
1665.75,90.328353
1668.816667,91.904963
1670.916667,93.198963
1672.983333,94.071954
1675.066667,94.478446
1676.366667,94.235518
1678.483333,93.743856
1679.883333,92.746982
1683.533333,91.626225
1687.083333,90.819048
1688.45,90.783238
1691.183333,90.638062
1693.25,90.382552
1693.566667,89.966382
1698.416667,89.647963
1700.5,89.614088
1703.566667,89.695387
1705.466667,89.35374
1707.466667,88.881434
1711.35,88.601729
1712.283333,88.628829
1715.183333,88.495267
1717.25,88.16717
1717.933333,87.782938
1720.066667,87.573884
1722.783333,87.502264
1724.716667,87.473229
1727.1,87.261272
1729.416667,86.804453
1731.133333,86.336019
1732.133333,85.978886
1735.283333,85.526905
1737.433333,84.984916
1739.3,84.44099
1741.916667,84.157414
1745.3,83.932875
1745.983333,83.91739
1751.033333,83.916422
1752.416667,84.06063
1755.133333,84.213548
1756.116667,84.129346
1759.333333,83.936746
1761.083333,83.803185
1762.516667,83.938682
1765.05,84.06934
1766.133333,84.182577
1769.45,84.125475
1769.816667,83.974492
1773.416667,83.895129
1775.2,83.973524
1777.3,84.10515
1779.066667,84.152574
1780.066667,84.057726
1785.316667,83.956103
1787.183333,83.981267
1789.3,84.123539
1789.666667,84.171931
1793.216667,84.04708
1794.333333,83.825445
1810.45,83.726725
1811.15,83.674462
1814.3,83.370561
1818.483333,82.961165
1820.266667,83.170218
1821.716667,83.588325
1823.816667,83.877708
1826.583333,83.969653
1828.2,83.887387
1828.533333,83.979331
1834.1,84.211613
1837.266667,84.21258
1839.35,83.97546
1840.4,83.851577
1842.883333,83.980299
1845.283333,84.13225
1847.316667,84.271619
1848.366667,84.294847
1851.583333,83.89029
1852.45,83.885451
1854.2,83.959975
1856.65,84.014174
1859.05,84.290975
1864.683333,85.037179
1867.316667,85.160095
1868.366667,85.323659
1871.166667,85.592719
1872.55,86.058249
1875.45,86.534426
1876.7,86.866394
1878.433333,86.79671
1879.466667,86.85478
1883.233333,87.273854
1885.316667,87.878754
1887.1,88.345252
1888.516667,88.535916
1889.583333,88.459457
1890.95,88.361705
1895.1,88.533013
1897.133333,88.793361
1898.166667,89.120491
1900.9,89.303412
1902.6,89.224049
1904.65,89.081777
1905.7,89.154365
1907.1,89.477623
1910.866667,89.887019
1911.566667,90.032195
1914.916667,89.702162
1915.966667,89.240503
1918.383333,89.345997
1920.15,89.723454
1923.483333,89.722486
1927.283333,89.586989
1930.716667,89.395357
1931.75,89.515369
1934.566667,89.516337
1936.35,89.34019
1938.6,88.602697
1940.783333,87.956181
1947.1,87.642601
1948.066667,87.418062
1949.733333,86.815099
1952.016667,86.390218
1954.966667,86.748318
1956.666667,87.090933
1959.35,86.873169
1961.033333,86.211167
1962.383333,85.900491
1964.416667,85.794029
1981.5,76.834746
1983.55,75.420734
1983.9,73.305038
1986.233333,71.46808
1987.966667,69.756941
1991.916667,68.342929
1993.433333,68.321637
1995.083333,68.443584
1997.35,68.282923
1998.0,68.128069
2000.233333,67.957729
2002.2,67.923855
2004.1,68.00225
2008.483333,68.341961
2010.066667,68.863626
2012.016667,69.547888
2016.466667,70.720909
2018.316667,71.105141
2020.416667,71.618095
2022.766667,72.084594
2023.25,72.725303
2026.283333,73.513123
2030.783333,74.443216
2032.716667,75.111025
2034.366667,75.667532
2037.033333,76.254043
2039.033333,76.860878
2041.0,77.385446
2042.95,77.844202
2044.566667,78.3107
2046.533333,78.793652
2047.533333,79.356934
2050.383333,79.958929
2052.666667,80.679969
2055.166667,81.214216
2055.516667,81.609094
2058.866667,81.926545
2061.1,82.30981
2062.933333,82.579837
2064.55,82.762758
2067.083333,82.925355
2069.0,83.116987
2070.916667,83.369593
2072.783333,83.649298
2074.416667,83.76931
2075.066667,83.74705
2078.733333,83.80996
2079.733333,83.875773
2082.033333,83.973524
2084.933333,84.028691
2085.916667,83.879644
2089.133333,83.722854
2091.533333,83.689948
2093.0,83.803185
2095.183333,83.91739
2097.066667,83.895129
2098.35,83.787699
2103.216667,83.736404
2105.466667,83.888355
2106.783333,83.915454
2110.966667,83.783828
2112.916667,83.648331
2115.433333,83.728661
2117.066667,83.856416
2118.616667,83.990945
2120.616667,83.932875
2123.2,83.787699
2125.5,83.710272
2127.516667,83.826413
2129.533333,83.931907
2131.216667,84.013206
2133.516667,83.913518
2135.566667,83.658009
2135.933333,83.623167
