time,pressure
0.0,27.457471
2.0,23.005412
4.0,20.295464
6.0,18.069435
8.0,15.94019
10.0,13.617378
12.0,12.16562
14.0,11.004213
16.0,10.036374
18.0,9.262103
20.0,8.584616
22.0,8.19748
24.0,7.810345
26.0,7.519993
28.0,7.42321
30.0,7.42321
32.0,7.519993
34.0,7.616777
36.0,7.616777
38.0,7.713561
40.0,7.907129
42.0,8.100697
44.0,8.19748
46.0,8.100697
48.0,8.100697
50.0,8.19748
52.0,8.294264
54.0,8.294264
56.0,8.294264
58.0,8.294264
60.0,8.391048
62.0,8.391048
64.0,8.294264
66.0,8.294264
68.0,8.294264
70.0,8.294264
72.0,8.294264
74.0,8.294264
76.0,8.19748
78.0,8.294264
80.0,8.294264
82.0,8.294264
84.0,8.19748
86.0,8.19748
88.0,8.100697
90.0,8.100697
92.0,8.100697
94.0,8.003913
96.0,8.003913
98.0,7.907129
100.0,7.907129
102.0,7.907129
104.0,7.907129
106.0,7.907129
108.0,7.907129
110.0,7.907129
112.0,7.907129
114.0,7.907129
116.0,7.907129
118.0,7.907129
120.0,7.907129
122.0,7.907129
124.0,7.907129
126.0,7.907129
128.0,7.810345
130.0,7.810345
132.0,7.810345
134.0,7.713561
136.0,7.713561
138.0,7.713561
140.0,7.713561
142.0,7.713561
144.0,7.713561
146.0,7.713561
148.0,7.713561
150.0,7.713561
152.0,7.713561
154.0,7.713561
156.0,7.616777
158.0,7.713561
160.0,7.616777
162.0,7.616777
164.0,7.616777
166.0,7.616777
168.0,7.616777
170.0,7.616777
172.0,7.519993
174.0,7.519993
176.0,7.519993
178.0,7.519993
180.0,7.519993
182.0,7.519993
184.0,7.519993
186.0,7.519993
188.0,7.519993
190.0,7.519993
192.0,7.519993
194.0,7.519993
196.0,7.519993
198.0,7.519993
200.0,7.519993
202.0,7.519993
204.0,7.519993
206.0,7.519993
208.0,7.519993
210.0,7.42321
212.0,7.519993
214.0,7.42321
216.0,7.519993
218.0,7.42321
220.0,7.42321
222.0,7.42321
224.0,7.42321
226.0,7.42321
228.0,7.42321
230.0,7.42321
232.0,7.42321
234.0,7.42321
236.0,7.42321
238.0,7.42321
240.0,7.42321
242.0,7.42321
244.0,7.42321
246.0,7.42321
248.0,7.42321
250.0,7.42321
252.0,7.42321
254.0,7.326426
256.0,7.42321
258.0,7.326426
260.0,7.326426
262.0,7.326426
264.0,7.326426
266.0,7.326426
268.0,7.326426
270.0,7.326426
272.0,7.326426
274.0,7.326426
276.0,7.326426
278.0,7.326426
280.0,7.326426
282.0,7.326426
284.0,7.326426
286.0,7.326426
288.0,7.326426
290.0,7.326426
292.0,7.326426
294.0,7.326426
296.0,7.326426
298.0,7.326426
300.0,7.326426
302.0,7.326426
304.0,7.326426
306.0,7.326426
308.0,7.326426
310.0,7.326426
312.0,7.326426
314.0,7.326426
316.0,7.326426
318.0,7.326426
320.0,7.326426
322.0,7.326426
324.0,7.326426
326.0,7.326426
328.0,7.326426
330.0,7.326426
332.0,7.326426
334.0,7.42321
336.0,7.42321
338.0,7.42321
340.0,7.42321
342.0,7.42321
344.0,7.42321
346.0,7.42321
348.0,7.42321
350.0,7.42321
352.0,7.42321
354.0,7.42321
356.0,7.42321
358.0,7.326426
360.0,7.326426
362.0,7.326426
364.0,7.326426
366.0,7.326426
368.0,7.42321
370.0,7.326426
372.0,7.42321
374.0,7.42321
376.0,7.42321
378.0,7.42321
380.0,7.42321
382.0,7.42321
384.0,7.42321
386.0,7.42321
388.0,7.42321
390.0,7.42321
392.0,7.42321
394.0,7.42321
396.0,7.42321
398.0,7.42321
400.0,7.42321
402.0,7.42321
404.0,7.42321
406.0,7.42321
408.0,7.42321
410.0,7.42321
412.0,7.42321
414.0,7.42321
416.0,7.42321
418.0,7.42321
420.0,7.42321
422.0,7.42321
424.0,7.42321
426.0,7.519993
428.0,7.42321
430.0,7.42321
432.0,7.42321
434.0,7.42321
436.0,7.42321
438.0,7.42321
440.0,7.42321
442.0,7.519993
444.0,7.42321
446.0,7.42321
448.0,7.42321
450.0,7.519993
452.0,7.519993
454.0,7.42321
456.0,7.42321
458.0,7.519993
460.0,7.42321
462.0,7.519993
464.0,7.519993
466.0,7.519993
468.0,7.519993
470.0,7.519993
472.0,7.519993
474.0,7.519993
476.0,7.519993
478.0,7.519993
480.0,7.519993
482.0,7.42321
484.0,7.42321
486.0,7.519993
488.0,7.519993
490.0,7.519993
492.0,7.519993
494.0,7.519993
496.0,7.519993
498.0,7.519993
500.0,7.519993
502.0,7.519993
504.0,7.519993
506.0,7.519993
508.0,7.519993
510.0,7.519993
512.0,7.519993
514.0,7.519993
516.0,7.519993
518.0,7.519993
520.0,7.616777
522.0,7.616777
524.0,7.519993
526.0,7.519993
528.0,7.519993
530.0,7.519993
532.0,7.519993
534.0,7.519993
536.0,7.519993
538.0,7.519993
540.0,7.519993
542.0,7.616777
544.0,7.519993
546.0,7.616777
548.0,7.519993
550.0,7.519993
552.0,7.519993
554.0,7.519993
556.0,7.519993
558.0,7.519993
560.0,7.616777
562.0,7.616777
564.0,7.616777
568.0,7.616777
570.0,7.616777
572.0,7.616777
574.0,7.616777
576.0,7.616777
578.0,7.616777
580.0,7.616777
582.0,7.616777
584.0,7.616777
586.0,7.616777
588.0,7.616777
590.0,7.616777
592.0,7.616777
594.0,7.713561
596.0,7.616777
598.0,7.616777
600.0,7.616777
602.0,7.616777
604.0,7.616777
606.0,7.616777
608.0,7.616777
610.0,7.616777
612.0,7.616777
614.0,7.616777
616.0,7.616777
618.0,7.616777
620.0,7.616777
622.0,7.616777
624.0,7.616777
626.0,7.616777
628.0,7.616777
632.0,7.616777
634.0,7.616777
636.0,7.616777
638.0,7.616777
640.0,7.616777
642.0,7.616777
644.0,7.616777
646.0,7.616777
648.0,7.616777
650.0,7.616777
652.0,7.616777
654.0,7.616777
656.0,7.616777
658.0,7.616777
660.0,7.616777
662.0,7.616777
664.0,7.616777
666.0,7.616777
668.0,7.616777
670.0,7.616777
672.0,7.616777
674.0,7.616777
676.0,7.616777
680.0,7.616777
682.0,7.616777
684.0,7.616777
686.0,7.616777
688.0,7.616777
690.0,7.616777
692.0,7.616777
694.0,7.616777
696.0,7.616777
698.0,7.616777
700.0,7.616777
702.0,7.616777
704.0,7.616777
706.0,7.616777
708.0,7.616777
710.0,7.616777
712.0,7.616777
716.0,7.616777
718.0,7.616777
720.0,7.519993
722.0,7.616777
724.0,7.616777
726.0,7.616777
728.0,7.616777
730.0,7.616777
732.0,7.616777
734.0,7.616777
736.0,7.616777
738.0,7.616777
740.0,7.616777
742.0,7.616777
744.0,7.616777
746.0,7.616777
748.0,7.713561
750.0,7.616777
752.0,7.713561
754.0,7.616777
756.0,7.616777
758.0,7.713561
760.0,7.713561
764.0,7.616777
766.0,7.616777
768.0,7.616777
770.0,7.616777
776.0,7.713561
778.0,7.713561
780.0,7.616777
782.0,7.713561
784.0,7.616777
786.0,7.713561
788.0,7.713561
792.0,7.616777
794.0,7.616777
798.0,7.616777
800.0,7.616777
804.0,7.616777
806.0,7.616777
808.0,7.616777
810.0,7.616777
812.0,7.616777
814.0,7.713561
818.0,7.616777
820.0,7.616777
822.0,7.616777
824.0,7.713561
826.0,7.713561
828.0,7.713561
830.0,7.713561
832.0,7.713561
834.0,7.713561
836.0,7.713561
838.0,7.713561
840.0,7.713561
842.0,7.713561
844.0,7.616777
846.0,7.519993
848.0,7.616777
850.0,7.713561
852.0,7.713561
854.0,7.713561
856.0,7.713561
858.0,7.810345
860.0,7.713561
862.0,7.713561
864.0,7.713561
866.0,7.713561
868.0,7.713561
870.0,7.713561
872.0,7.810345
874.0,7.713561
876.0,7.810345
878.0,7.810345
880.0,7.810345
882.0,7.810345
884.0,7.810345
886.0,7.810345
888.0,7.713561
890.0,7.810345
892.0,7.810345
894.0,7.810345
896.0,7.810345
898.0,7.810345
900.0,7.810345
902.0,7.810345
904.0,7.810345
906.0,7.810345
908.0,7.810345
910.0,7.713561
912.0,7.713561
914.0,7.713561
928.0,7.713561
930.0,7.713561
932.0,7.713561
934.0,7.616777
936.0,7.616777
938.0,7.616777
940.0,7.616777
942.0,7.616777
944.0,7.713561
946.0,7.713561
948.0,7.713561
950.0,7.713561
952.0,7.713561
954.0,7.713561
956.0,7.713561
958.0,7.616777
960.0,7.616777
962.0,7.616777
964.0,7.713561
966.0,7.713561
968.0,7.713561
970.0,7.713561
972.0,7.713561
974.0,7.713561
976.0,7.713561
978.0,7.713561
980.0,7.616777
982.0,7.713561
984.0,7.713561
986.0,7.713561
988.0,7.616777
990.0,7.713561
992.0,7.713561
994.0,7.713561
996.0,7.713561
998.0,7.713561
1000.0,7.713561
1002.0,7.713561
1004.0,7.616777
1006.0,7.519993
1008.0,7.616777
1010.0,7.713561
1012.0,7.713561
1014.0,7.713561
1016.0,7.713561
1018.0,7.810345
1020.0,7.810345
1022.0,7.810345
1024.0,7.713561
1026.0,7.713561
1028.0,7.713561
1030.0,7.713561
1032.0,7.713561
1034.0,7.713561
1036.0,7.810345
1038.0,7.810345
1040.0,7.810345
1044.0,7.810345
1046.0,7.810345
1048.0,7.810345
1050.0,7.810345
1052.0,7.810345
1054.0,7.810345
1056.0,7.713561
1060.0,7.810345
1062.0,7.713561
1064.0,7.810345
1066.0,7.810345
1068.0,7.810345
1070.0,7.810345
1072.0,7.810345
1074.0,7.810345
1076.0,7.810345
1078.0,7.810345
1080.0,7.810345
1082.0,7.810345
1084.0,7.810345
1086.0,7.810345
1088.0,7.810345
1090.0,7.810345
1092.0,7.810345
1094.0,7.810345
1096.0,7.810345
1098.0,7.907129
1100.0,7.907129
1102.0,7.810345
1104.0,7.810345
1106.0,7.810345
1108.0,7.810345
1110.0,7.810345
1112.0,7.810345
1114.0,7.907129
1116.0,7.907129
1118.0,7.907129
1120.0,7.907129
1122.0,7.810345
1124.0,7.907129
1126.0,7.907129
1128.0,7.810345
1130.0,7.810345
1132.0,7.810345
1134.0,7.810345
1136.0,7.907129
1138.0,7.907129
1140.0,7.907129
1142.0,7.907129
1144.0,7.907129
1146.0,7.907129
1148.0,7.907129
1150.0,7.810345
1152.0,7.810345
1154.0,7.810345
1156.0,7.907129
1158.0,7.907129
1160.0,7.907129
1162.0,7.907129
1166.0,7.907129
1168.0,7.907129
1170.0,7.907129
1172.0,7.907129
1174.0,7.810345
1176.0,7.810345
1178.0,7.907129
1180.0,7.907129
1182.0,7.907129
1184.0,7.907129
1186.0,7.907129
1188.0,7.907129
1190.0,7.907129
1192.0,7.907129
1194.0,7.907129
1196.0,7.907129
1198.0,7.907129
1200.0,7.907129
1202.0,7.907129
1204.0,7.907129
1206.0,7.907129
1208.0,7.907129
1210.0,7.907129
1212.0,7.907129
1214.0,7.907129
1216.0,7.907129
1218.0,7.907129
1220.0,7.810345
1222.0,7.810345
1224.0,7.810345
1226.0,7.810345
1228.0,7.810345
1230.0,7.907129
1232.0,7.907129
1234.0,7.907129
1236.0,7.907129
1238.0,7.907129
1242.0,7.907129
1244.0,7.907129
1246.0,7.907129
1248.0,7.907129
1250.0,7.907129
1252.0,7.907129
1254.0,7.907129
1256.0,8.003913
1258.0,7.907129
1260.0,7.907129
1262.0,8.003913
1264.0,8.003913
1266.0,8.003913
1274.0,7.810345
1276.0,7.810345
1278.0,7.810345
1280.0,7.810345
1282.0,7.810345
1284.0,7.810345
1286.0,7.810345
1288.0,7.810345
1290.0,7.810345
1292.0,7.810345
1294.0,7.810345
1296.0,7.810345
1298.0,7.713561
1300.0,7.810345
1302.0,7.810345
1304.0,7.810345
1306.0,7.810345
1308.0,7.810345
1310.0,7.810345
1312.0,7.810345
1314.0,7.810345
1316.0,7.810345
1318.0,7.810345
1320.0,7.810345
1322.0,7.810345
1324.0,7.713561
1326.0,7.810345
1328.0,7.810345
1330.0,7.810345
1332.0,7.810345
1334.0,7.810345
1336.0,7.810345
1338.0,7.810345
1340.0,7.810345
1342.0,7.810345
1344.0,7.810345
1346.0,7.810345
1348.0,7.810345
1350.0,7.810345
1352.0,7.907129
1354.0,7.810345
1356.0,7.810345
1358.0,7.810345
1360.0,7.810345
1362.0,7.810345
1364.0,7.810345
1366.0,7.810345
1368.0,7.810345
1380.0,7.810345
1382.0,7.810345
1384.0,7.810345
1386.0,7.810345
1388.0,7.810345
1390.0,7.713561
1392.0,7.616777
1394.0,7.713561
1396.0,7.810345
1398.0,7.519993
1424.0,7.810345
1426.0,8.100697
1428.0,8.100697
1430.0,8.003913
1432.0,8.003913
1434.0,8.003913
1436.0,7.713561
1438.0,7.810345
1440.0,7.907129
1442.0,8.003913
1444.0,8.003913
1446.0,8.003913
1448.0,8.003913
1450.0,8.003913
1452.0,8.003913
1454.0,8.003913
1456.0,8.003913
1458.0,8.003913
1460.0,8.003913
1462.0,8.003913
1464.0,8.003913
1466.0,8.003913
1468.0,8.003913
1470.0,8.003913
1472.0,8.003913
1474.0,8.003913
1476.0,8.003913
1478.0,8.003913
1480.0,8.003913
1482.0,8.003913
1484.0,8.003913
1486.0,8.003913
1488.0,8.003913
1490.0,8.003913
1492.0,8.003913
1494.0,8.003913
1496.0,8.003913
1498.0,8.003913
1500.0,8.003913
1502.0,8.003913
1504.0,8.100697
1506.0,8.003913
1508.0,8.003913
1510.0,8.003913
1512.0,8.003913
1514.0,7.907129
1516.0,7.907129
1518.0,8.003913
1520.0,8.003913
1522.0,8.003913
1524.0,8.003913
1526.0,7.907129
1528.0,8.003913
1530.0,7.907129
1532.0,7.907129
1534.0,7.907129
1536.0,7.907129
1538.0,7.907129
1540.0,7.907129
1542.0,7.907129
1544.0,7.907129
1546.0,7.907129
1548.0,7.907129
1550.0,7.907129
1552.0,7.907129
1554.0,7.907129
1556.0,7.907129
1558.0,7.907129
1560.0,7.907129
1562.0,7.907129
1564.0,7.907129
1566.0,7.907129
1568.0,7.907129
1570.0,8.003913
1572.0,8.003913
1574.0,8.003913
1576.0,8.003913
1578.0,7.907129
1580.0,7.907129
1582.0,7.907129
1584.0,7.907129
1586.0,7.907129
1588.0,7.907129
1590.0,7.907129
1592.0,7.907129
1594.0,7.907129
1596.0,7.907129
1598.0,7.907129
1600.0,7.907129
1602.0,7.907129
1604.0,7.907129
1606.0,7.907129
1608.0,7.907129
1610.0,7.907129
1612.0,7.907129
1614.0,7.907129
1616.0,8.003913
1618.0,8.003913
1620.0,8.003913
1622.0,8.003913
1624.0,8.003913
1626.0,8.003913
1628.0,8.003913
1630.0,8.003913
1632.0,8.003913
1634.0,8.003913
1636.0,8.003913
1638.0,8.003913
1640.0,8.003913
1642.0,8.003913
1644.0,8.003913
1646.0,8.003913
1648.0,8.003913
1650.0,8.003913
1652.0,8.003913
1654.0,8.003913
1656.0,8.003913
1658.0,8.003913
1660.0,7.907129
1662.0,8.003913
1664.0,7.907129
1666.0,8.003913
1668.0,8.003913
1670.0,8.003913
1672.0,7.907129
1674.0,7.907129
1676.0,7.907129
1678.0,7.907129
1680.0,7.907129
1682.0,7.907129
1684.0,7.907129
1686.0,8.003913
1688.0,7.907129
1690.0,8.003913
1692.0,8.003913
1694.0,8.003913
1696.0,8.003913
1698.0,8.003913
1700.0,8.003913
1702.0,7.907129
1704.0,7.907129
1706.0,7.907129
1708.0,7.907129
1710.0,7.907129
1712.0,7.907129
1714.0,7.907129
1716.0,7.907129
1718.0,7.907129
1720.0,7.907129
1722.0,8.003913
1724.0,8.003913
1726.0,7.907129
1728.0,7.907129
1730.0,7.907129
1732.0,8.003913
1734.0,8.003913
1736.0,8.003913
1738.0,8.003913
1740.0,8.003913
1742.0,8.003913
1744.0,8.003913
1746.0,8.003913
1748.0,8.003913
1750.0,8.003913
1752.0,8.003913
1754.0,8.003913
1756.0,8.003913
1758.0,8.003913
1760.0,8.003913
1762.0,8.003913
1764.0,8.003913
1766.0,8.003913
1768.0,8.003913
1770.0,8.003913
1772.0,8.003913
1774.0,8.003913
1776.0,8.003913
1778.0,8.003913
1780.0,8.003913
1782.0,8.003913
1784.0,8.003913
1786.0,8.003913
1788.0,8.003913
1790.0,8.003913
1792.0,8.003913
1794.0,8.003913
1796.0,8.003913
1798.0,8.003913
1800.0,8.003913
1802.0,8.003913
1804.0,8.003913
1806.0,8.003913
1808.0,8.003913
1810.0,8.003913
1812.0,8.003913
1814.0,8.003913
1816.0,7.907129
1818.0,8.003913
1820.0,8.003913
1822.0,7.907129
1824.0,7.907129
1826.0,7.907129
1828.0,7.907129
1830.0,7.907129
1832.0,7.907129
1834.0,7.907129
1836.0,7.907129
1838.0,7.907129
1840.0,7.907129
1842.0,7.907129
1844.0,7.810345
1846.0,7.907129
1848.016667,7.907129
1850.0,7.907129
1852.0,7.907129
1854.0,7.907129
1856.0,7.907129
1858.0,7.907129
1860.0,7.907129
1862.0,7.907129
1864.0,7.907129
1866.0,7.907129
1868.0,7.907129
1870.0,7.907129
1872.0,7.810345
1874.0,7.907129
1876.0,7.907129
1878.0,7.907129
1880.0,7.907129
1882.0,7.907129
1884.0,7.907129
1886.0,7.907129
1888.0,7.907129
1890.0,7.907129
1892.0,7.907129
1894.0,7.907129
1896.0,7.907129
1898.0,7.907129
1900.0,7.907129
1902.0,8.003913
1904.0,8.003913
1906.0,8.003913
1908.0,8.003913
1910.0,8.003913
1912.0,8.003913
1914.0,7.907129
1916.0,7.907129
1918.0,7.907129
1920.0,7.907129
1922.0,7.907129
1924.0,7.907129
1926.0,7.907129
1928.0,7.907129
1930.0,8.003913
1932.0,8.003913
1934.0,7.907129
1936.0,7.907129
1938.0,7.907129
1940.0,7.810345
1942.0,7.810345
1944.0,7.907129
1946.0,7.907129
1948.0,7.810345
1950.0,7.907129
1952.0,7.907129
1954.0,7.907129
1956.0,7.907129
1958.0,7.907129
1960.0,7.907129
1962.0,7.810345
1964.0,7.810345
1966.0,7.810345
1968.0,7.810345
1970.0,7.907129
1972.0,7.907129
1974.0,7.907129
1976.0,7.907129
1978.0,7.907129
1980.0,7.907129
1982.0,7.907129
1984.0,7.907129
1986.0,7.907129
1988.0,7.907129
1990.0,7.810345
1992.0,7.810345
1994.0,7.810345
1996.0,7.810345
1998.0,7.907129
2000.0,7.907129
2002.0,7.907129
2004.0,7.907129
2006.0,7.907129
2008.0,7.907129
2010.0,7.907129
2012.0,7.907129
2014.0,7.810345
2016.0,7.810345
2018.0,7.907129
2020.0,8.003913
2022.0,7.907129
2024.0,8.003913
2026.0,7.907129
2028.0,7.907129
2030.0,7.907129
2032.0,7.907129
2034.0,7.907129
2036.0,7.907129
2038.0,7.907129
2040.0,7.907129
2042.0,7.907129
2044.0,7.907129
2046.0,7.907129
2048.0,7.907129
2050.0,7.907129
2052.0,7.907129
2054.0,7.907129
2056.0,7.907129
2058.0,7.907129
2060.0,7.907129
2062.0,7.907129
2064.0,7.907129
2066.0,7.907129
2068.0,7.907129
2070.0,7.907129
2072.0,7.907129
2074.0,7.907129
2076.0,8.003913
2078.0,7.907129
2080.0,7.907129
2082.0,7.907129
2084.0,7.907129
2122.0,7.713561
2124.0,7.616777
2126.0,7.713561
2128.0,7.616777
2130.0,7.713561
2132.0,7.616777
2134.0,7.616777
2136.0,7.616777
2138.0,7.616777
2140.0,7.616777
2142.0,7.616777
2144.0,7.616777
2150.0,8.003913
2152.0,7.713561
2154.0,7.713561
2156.0,7.616777
2158.0,7.616777
2160.0,7.616777
2162.0,7.616777
2164.0,7.616777
2166.0,7.616777
2168.0,7.616777
2170.0,7.616777
2172.0,7.616777
2174.0,7.616777
2176.0,7.616777
2178.0,7.616777
2180.0,7.616777
2182.0,7.616777
2184.0,7.616777
2186.0,7.616777
2188.0,7.616777
2190.0,7.616777
2192.0,7.616777
2194.0,7.616777
2196.0,7.616777
2198.0,7.616777
2200.0,7.616777
2202.0,7.616777
2204.0,7.616777
2206.0,7.616777
2208.0,7.616777
2210.0,7.616777
2212.0,7.616777
2214.0,7.616777
2216.0,7.616777
2218.0,7.616777
2220.0,7.616777
2222.0,7.713561
2224.0,7.713561
2226.0,7.713561
2228.0,7.713561
2230.0,7.713561
2232.0,7.616777
2234.0,7.616777
2236.0,7.616777
2238.0,7.616777
2240.0,7.713561
2242.0,7.713561
2244.0,7.616777
2246.0,7.616777
2248.0,7.616777
2250.0,7.616777
2252.0,7.616777
2254.0,7.616777
2256.0,7.616777
2258.0,7.616777
2260.0,7.616777
2262.0,7.519993
2264.0,7.616777
2266.0,7.616777
2268.0,7.616777
2270.0,7.616777
2272.0,7.616777
2274.0,7.519993
2276.0,7.519993
2278.0,7.519993
2280.0,7.519993
2282.0,7.519993
2284.0,7.519993
2286.0,7.519993
2288.0,7.519993
2290.0,7.519993
2292.0,7.519993
2294.0,7.519993
2296.0,7.519993
2298.0,7.519993
2300.0,7.519993
2302.0,7.519993
2304.0,7.519993
2306.0,7.519993
2308.0,7.616777
2310.0,7.616777
2312.0,7.616777
2314.0,7.616777
2316.0,7.616777
2318.0,7.616777
2320.0,7.616777
2322.0,7.616777
2324.0,7.616777
2326.0,7.616777
2328.0,7.616777
2330.0,7.616777
2332.0,7.616777
2334.0,7.616777
2336.0,7.519993
2338.0,7.519993
2340.0,7.519993
2342.0,7.616777
2344.0,7.519993
2346.0,7.519993
2348.0,7.519993
2350.0,7.519993
2352.0,7.519993
2354.0,7.519993
2356.0,7.519993
2358.0,7.519993
2360.0,7.519993
2362.0,7.519993
2364.0,7.519993
2366.0,7.519993
2368.0,7.519993
2370.0,7.519993
2372.0,7.519993
2374.0,7.519993
2376.0,7.519993
2378.0,7.519993
2380.0,7.519993
2382.0,7.519993
2384.0,7.519993
2386.0,7.519993
2388.0,7.519993
2390.0,7.519993
2392.0,7.616777
2394.0,7.519993
2396.0,7.519993
2398.0,7.519993
2400.0,7.519993
2402.0,7.519993
2404.0,7.519993
2406.0,7.616777
2408.0,7.616777
2410.0,7.616777
2412.0,7.616777
2414.0,7.616777
2416.0,7.616777
2418.0,7.519993
2420.0,7.519993
2422.0,7.519993
2424.0,7.519993
2426.0,7.519993
2428.0,7.519993
2430.0,7.519993
2432.0,7.616777
2434.0,7.519993
2436.0,7.519993
2438.0,7.519993
2440.0,7.519993
2442.0,7.519993
2444.0,7.519993
2446.0,7.519993
2448.0,7.519993
2450.0,7.519993
2452.0,7.519993
2454.0,7.519993
2456.0,7.519993
2458.0,7.616777
2460.0,7.519993
2462.0,7.519993
2464.0,7.519993
2466.0,7.519993
2468.0,7.519993
2470.0,7.326426
2472.0,7.326426
2474.0,7.42321
2476.0,7.519993
2478.0,7.519993
2480.0,7.519993
2482.0,7.519993
2484.0,7.519993
2486.0,7.519993
2488.0,7.519993
2490.0,7.519993
2492.0,7.519993
2494.0,7.519993
2496.0,7.519993
2498.0,7.519993
2500.0,7.519993
2502.0,7.519993
2504.0,7.519993
2506.0,7.519993
2508.0,7.616777
2510.0,7.519993
2512.0,7.519993
2514.0,7.519993
2516.0,7.519993
2518.0,7.519993
2520.0,7.519993
2522.0,7.519993
2524.0,7.519993
2526.0,7.519993
2528.0,7.519993
2530.0,7.519993
2532.0,7.519993
2534.0,7.519993
2536.0,7.616777
2538.0,7.519993
2540.0,7.519993
2542.0,7.519993
2544.0,7.519993
2546.0,7.519993
2548.0,7.519993
2550.0,7.519993
2552.0,7.519993
2554.0,7.519993
2556.0,7.519993
2558.0,7.519993
2560.0,7.519993
2562.0,7.519993
2564.0,7.42321
2566.0,7.519993
2568.0,7.42321
2570.0,7.42321
2572.0,7.42321
2574.0,7.42321
2576.0,7.42321
2578.0,7.519993
2580.0,7.42321
2582.0,7.42321
2584.0,7.42321
2586.0,7.42321
2588.0,7.42321
2590.0,7.42321
2592.0,7.42321
2594.0,7.42321
2596.0,7.42321
2598.0,7.42321
2600.0,7.42321
2602.0,7.42321
2604.0,7.42321
2606.0,7.519993
2608.0,7.42321
2610.0,7.42321
2612.0,7.42321
2614.0,7.42321
2616.0,7.42321
2618.0,7.519993
2620.0,7.713561
2622.0,7.519993
2624.0,7.519993
2626.0,7.519993
2628.0,7.519993
2630.0,7.519993
2632.0,7.519993
2634.0,7.519993
2636.0,7.519993
2638.0,7.519993
2640.0,7.519993
2642.0,7.519993
2644.0,7.42321
2646.0,7.42321
2648.0,7.42321
2650.0,7.42321
2652.0,7.42321
2654.0,7.519993
2656.0,7.519993
2658.0,7.519993
2660.0,7.519993
2662.0,7.519993
2664.0,7.519993
2666.0,7.42321
2668.0,7.42321
2670.0,7.42321
2672.0,7.42321
2674.0,7.42321
2676.0,7.42321
2678.0,7.42321
2680.0,7.42321
2682.0,7.42321
2684.0,7.42321
2686.0,7.42321
2688.0,7.519993
2690.0,7.42321
2692.0,7.42321
2694.0,7.42321
2696.0,7.42321
2698.0,7.42321
2700.0,7.42321
