time,pressure
0.0,161.606295
0.633333,161.539514
2.1,161.507575
4.583333,161.558871
7.183333,161.714693
8.533333,161.815348
12.016667,161.967298
14.483333,162.368952
28.9,162.748344
31.4,163.070635
32.9,163.24291
34.5,161.745663
37.083333,156.800975
39.083333,148.768882
41.083333,139.737011
43.133333,131.225837
45.883333,124.779064
46.583333,119.471436
49.25,112.296848
51.133333,103.836001
52.85,95.504846
54.9,89.030005
57.016667,84.400832
60.2,81.574743
60.933333,79.426141
63.483333,76.95041
64.883333,74.050765
66.833333,71.081436
68.183333,67.693032
73.316667,65.054704
74.516667,63.522615
76.3,62.595426
78.25,61.516286
80.3,60.497151
83.05,59.549637
84.983333,58.461787
86.85,57.310059
88.9,56.295764
90.933333,55.355024
92.283333,54.452999
96.216667,53.621625
97.65,52.937363
100.4,52.207613
103.183333,51.542708
105.166667,51.112987
107.183333,50.788761
109.116667,50.390012
111.05,50.006748
112.966667,49.627355
114.15,49.161824
116.116667,48.653709
118.033333,48.22786
120.066667,47.929766
122.066667,47.65006
124.116667,47.335513
126.15,47.058711
128.183333,46.76352
130.116667,46.522528
130.6,46.352189
132.85,46.009574
134.95,45.44242
139.316667,44.774611
144.816667,44.281982
147.416667,43.923881
149.883333,43.657726
151.016667,43.374149
153.033333,43.063473
154.95,42.836998
157.5,42.714083
158.6,42.601814
161.566667,42.411149
163.4,42.173061
165.3,42.001754
167.1,41.865288
168.4,41.647525
171.15,41.309749
173.483333,41.137474
175.016667,40.585805
189.6,39.811535
191.25,39.146629
193.0,39.043071
195.55,38.92693
197.1,38.821436
198.316667,38.679163
201.883333,38.572701
203.25,38.478821
205.316667,38.415911
207.383333,38.266864
209.85,38.175887
210.416667,37.993933
213.366667,37.791655
217.133333,37.601959
219.6,37.552599
222.133333,37.489689
222.666667,37.394841
225.266667,37.32806
227.183333,37.311607
229.55,37.501303
232.033333,37.885535
233.25,38.31332
235.183333,38.563023
237.133333,38.851439
239.566667,40.029298
242.15,41.660106
243.3,42.87668
245.816667,43.44093
254.383333,42.962817
255.583333,42.304687
257.433333,41.621393
259.483333,41.176187
263.583333,40.685493
265.566667,40.231577
267.566667,39.99736
269.45,39.769917
271.383333,39.565703
274.016667,39.358586
274.566667,39.161147
277.883333,39.025649
279.8,38.894991
281.566667,38.7924
283.583333,38.651096
286.3,38.554312
287.633333,38.520438
288.966667,38.520438
292.283333,38.520438
293.65,38.520438
295.583333,38.520438
298.283333,38.509791
300.9,38.473981
302.233333,38.400426
304.066667,38.317192
306.116667,38.213633
308.066667,38.08491
310.133333,37.916506
312.2,37.750038
314.266667,37.624219
315.666667,37.552599
319.233333,37.552599
319.95,37.795526
321.916667,38.536891
324.916667,39.324712
326.583333,39.795081
328.033333,39.958646
330.5,40.112532
332.0,40.294486
333.95,40.378688
335.9,40.251901
338.516667,39.944128
340.583333,39.76895
342.033333,39.730236
344.1,40.824862
358.15,43.22123
360.35,45.892465
363.016667,46.361867
365.6,46.419937
367.65,46.271858
368.366667,45.696962
370.933333,44.672988
372.966667,43.59288
374.933333,42.983142
376.866667,42.570843
378.55,42.1779
381.3,41.80625
382.5,41.409436
384.483333,41.060046
387.05,40.768727
388.9,40.46289
393.55,40.218995
395.1,40.042848
396.8,39.927675
399.066667,39.775724
401.15,39.662487
402.4,39.584092
405.15,39.542475
408.05,39.539572
408.666667,39.544411
410.133333,39.542475
412.666667,39.530861
415.433333,39.50473
417.383333,39.488276
419.266667,39.488276
421.866667,39.488276
423.6,39.488276
427.4,39.488276
429.283333,39.488276
431.633333,39.490212
434.966667,39.552154
435.533333,39.675069
437.45,39.825084
438.616667,39.978971
441.616667,40.117372
443.55,40.279001
446.55,40.428048
449.183333,40.576127
451.066667,40.738724
453.516667,40.918742
456.116667,41.048432
457.45,41.180058
459.283333,41.32717
461.366667,41.413308
464.116667,41.442343
465.316667,41.565258
467.9,41.720112
470.366667,41.856578
471.666667,41.964976
473.55,42.149833
476.566667,42.304687
477.85,42.391793
479.566667,42.391793
482.2,42.391793
484.216667,42.391793
485.45,42.391793
488.116667,42.391793
489.35,42.391793
492.483333,42.391793
493.166667,42.391793
495.616667,42.391793
497.8,42.391793
500.2,42.391793
501.566667,42.391793
504.283333,42.374371
506.133333,42.288234
507.383333,42.111119
510.816667,41.843028
525.566667,41.537191
528.9,41.423954
530.6,41.423954
531.85,41.423954
534.1,41.423954
536.233333,41.423954
537.566667,41.408468
540.25,41.319427
542.116667,41.171348
544.033333,41.012622
545.983333,40.874221
548.033333,40.759049
549.983333,40.615808
552.266667,40.492893
554.25,40.456115
556.1,40.456115
558.083333,40.456115
560.65,40.456115
562.05,40.456115
563.966667,40.456115
565.183333,40.456115
567.133333,40.456115
568.95,40.456115
571.433333,40.464826
572.183333,40.515153
574.816667,40.622583
576.3,40.782277
579.0,40.971005
581.016667,41.147152
582.983333,41.30491
585.6,41.403629
588.216667,41.423954
589.15,41.410404
591.35,41.386208
593.133333,41.368787
595.466667,41.369755
597.466667,41.36298
599.35,41.356205
601.383333,41.355237
602.833333,41.355237
605.416667,41.475249
607.35,41.681399
610.016667,41.790765
613.033333,41.763665
615.066667,41.746244
617.083333,41.729791
619.083333,41.746244
621.0,41.557516
622.95,41.451053
625.233333,41.366851
626.983333,41.235225
629.4,41.074564
631.983333,40.971005
633.816667,40.810344
635.283333,40.654522
637.25,40.544188
639.266667,40.514185
641.883333,40.505475
643.1,40.492893
645.516667,40.467729
647.966667,40.456115
649.8,40.456115
651.566667,40.456115
654.183333,40.456115
655.283333,40.456115
657.233333,40.456115
659.816667,40.456115
662.233333,40.456115
663.4,40.456115
665.366667,40.456115
668.45,40.456115
669.916667,40.456115
672.566667,40.456115
673.9,40.456115
676.016667,40.456115
679.266667,40.456115
681.333333,40.456115
683.383333,40.456115
686.55,40.456115
687.95,40.456115
689.9,40.456115
691.183333,40.456115
693.9,40.456115
695.783333,40.456115
699.016667,40.456115
702.483333,40.456115
703.95,40.456115
706.4,40.456115
708.383333,40.456115
710.35,40.456115
711.616667,40.456115
714.233333,40.456115
716.166667,40.456115
718.666667,40.456115
719.283333,40.456115
721.883333,40.478375
723.983333,40.538381
727.233333,40.61968
728.283333,40.673879
730.133333,40.763888
731.966667,40.8839
734.416667,41.020365
735.783333,41.08521
738.216667,41.099728
740.083333,41.070693
741.233333,41.00004
743.983333,40.987459
745.25,41.077468
748.016667,41.176187
750.033333,41.223611
751.9,41.293296
753.833333,41.446214
756.983333,41.615586
758.983333,41.667849
760.216667,41.538159
762.083333,41.438471
763.95,41.423954
765.983333,41.423954
767.25,41.423954
770.483333,41.423954
772.8,41.423954
774.15,41.423954
776.133333,41.423954
778.533333,41.423954
781.466667,41.423954
782.4,41.423954
784.2,41.423954
786.116667,41.423954
788.016667,41.423954
789.966667,41.423954
793.1,41.423954
794.283333,41.423954
796.533333,41.423954
798.516667,41.423954
799.916667,41.423954
801.883333,41.423954
804.416667,41.423954
806.883333,41.423954
808.033333,41.423954
810.033333,41.423954
812.333333,41.423954
814.183333,41.423954
816.9,41.423954
818.216667,41.423954
820.283333,41.423954
820.933333,41.423954
824.366667,41.423954
826.383333,41.423954
828.433333,41.423954
830.45,41.423954
831.933333,41.423954
834.5,41.423954
836.566667,41.423954
838.483333,41.423954
839.866667,41.423954
842.366667,41.423954
844.483333,41.423954
846.45,41.423954
849.916667,41.423954
862.2,41.423954
864.45,41.423954
867.05,41.423954
868.55,41.423954
870.583333,41.423954
872.6,41.423954
874.033333,41.423954
877.133333,41.423954
879.133333,41.423954
881.033333,41.432664
882.333333,41.472346
884.216667,41.571065
886.95,41.681399
888.3,41.766569
890.35,41.854642
893.0,41.94078
894.333333,42.044338
897.083333,42.076277
898.466667,42.054017
901.133333,42.0124
903.1,42.022078
905.05,42.06176
907.583333,42.083052
908.3,42.120798
910.433333,42.16919
913.966667,42.248552
915.166667,42.302751
916.533333,42.347272
919.216667,42.374371
920.616667,42.391793
922.566667,42.391793
925.866667,42.391793
927.2,42.391793
928.333333,42.391793
930.95,42.391793
932.85,42.391793
934.566667,42.391793
937.233333,42.391793
939.9,42.391793
941.066667,42.391793
942.916667,42.391793
944.666667,42.391793
946.5,42.391793
948.9,42.391793
950.85,42.391793
952.85,42.391793
954.966667,42.391793
956.833333,42.391793
959.183333,42.391793
960.983333,42.391793
963.5,42.391793
964.883333,42.391793
966.533333,42.391793
969.316667,42.391793
971.366667,42.391793
973.283333,42.391793
975.15,42.391793
977.166667,42.391793
978.883333,42.391793
981.95,42.391793
983.166667,42.391793
985.183333,42.391793
987.333333,42.391793
988.433333,42.391793
991.416667,42.405342
993.333333,42.436313
995.166667,42.449863
997.05,42.475995
999.0,42.560196
1001.45,42.639559
1002.633333,42.675369
1005.283333,42.71989
1006.883333,42.778928
1009.25,42.853452
1011.166667,42.933782
1012.383333,43.021856
1015.466667,43.095411
1017.333333,43.222198
1031.9,43.330596
1033.6,43.359631
1035.25,43.359631
1037.6,43.359631
1039.4,43.359631
1041.3,43.359631
1043.1,43.359631
1045.0,43.359631
1047.516667,43.359631
1049.383333,43.359631
1051.366667,43.359631
1053.35,43.359631
1056.233333,43.348985
1057.45,43.315111
1059.416667,43.21252
1061.833333,43.073151
1064.55,42.955075
1065.283333,42.834095
1067.916667,42.690855
1070.1,42.559229
1071.066667,42.498255
1073.583333,42.461477
1074.983333,42.451799
1077.016667,42.451799
1079.0,42.436313
1080.233333,42.407278
1083.216667,42.391793
1085.266667,42.391793
1085.983333,42.391793
1088.9,42.391793
1090.933333,42.445024
1092.833333,42.561164
1095.3,42.63472
1096.6,42.626977
1098.55,42.63472
1100.483333,42.656013
1103.1,42.668594
1104.933333,42.615363
1108.6,42.458573
1110.533333,42.297912
1112.533333,42.262102
1115.25,42.242745
1116.583333,42.24952
1119.216667,42.257263
1120.5,42.254359
1123.216667,42.275652
1125.133333,42.328883
1127.216667,42.382114
1129.483333,42.391793
1131.266667,42.391793
1133.133333,42.391793
1135.133333,42.391793
1137.133333,42.391793
1138.383333,42.391793
1141.033333,42.391793
1143.516667,42.391793
1144.966667,42.391793
1146.85,42.391793
1149.016667,42.391793
1150.833333,42.391793
1153.383333,42.391793
1155.433333,42.391793
1157.45,42.391793
1158.816667,42.391793
1160.833333,42.391793
1162.883333,42.391793
1165.266667,42.391793
1167.15,42.391793
1168.933333,42.391793
1170.616667,42.391793
1173.116667,42.391793
1175.066667,42.391793
1176.366667,42.391793
1180.183333,42.391793
1180.85,42.494383
1198.966667,42.80022
1199.566667,42.869905
1202.233333,42.899908
1204.333333,42.927975
1207.083333,42.906683
1209.116667,42.918297
1211.016667,42.985078
1213.016667,43.061537
1215.483333,43.115736
1216.866667,43.150578
1218.866667,43.230909
1222.416667,43.318014
1223.083333,43.359631
1225.016667,43.359631
1227.016667,43.359631
1228.95,43.359631
1232.216667,43.359631
1233.416667,43.359631
1234.666667,43.359631
1237.283333,43.359631
1239.666667,43.359631
1240.9,43.359631
1242.983333,43.359631
1244.283333,43.359631
1246.85,43.359631
1248.8,43.359631
1250.566667,43.359631
1253.866667,43.359631
1255.6,43.359631
1257.466667,43.371245
1258.866667,43.402216
1260.866667,43.387699
1263.25,43.346082
1265.2,43.282204
1267.066667,43.211552
1268.233333,43.082829
1270.6,42.947332
1272.466667,42.778928
1274.8,42.568907
1276.983333,42.439217
1278.483333,42.403407
1281.216667,42.391793
1283.85,42.391793
1285.283333,42.391793
1287.116667,42.391793
1289.133333,42.391793
1290.45,42.391793
1292.35,42.391793
1294.866667,42.391793
1299.45,42.385986
1300.833333,42.326947
1303.316667,42.188546
1306.483333,42.0124
1307.2,41.868192
1308.5,41.733662
1311.083333,41.606875
1313.016667,41.520738
1315.066667,41.515898
1317.183333,41.610747
1319.133333,41.759794
1320.833333,41.859481
1323.5,41.859481
1325.316667,41.837221
1326.583333,41.83335
1330.3,41.825607
1331.033333,41.772376
1332.35,41.656235
1334.966667,41.625264
1336.783333,41.699788
1338.816667,41.825607
1341.216667,41.836253
1343.616667,41.800443
1346.216667,41.765601
1347.366667,41.744308
1349.933333,41.725919
1351.833333,41.753987
