time,pressure
0.0,120.980379
0.001389,120.980379
0.002778,120.980379
0.004167,120.990057
0.005556,120.990057
0.006944,120.990057
0.008333,120.990057
0.009722,120.980379
0.011111,120.980379
0.0125,120.980379
0.013889,120.980379
0.015278,120.980379
0.016667,120.980379
0.0175,120.980379
0.018889,120.980379
0.102222,120.022218
0.185556,118.957596
0.268889,117.91233
0.352222,116.876743
0.435556,115.841155
0.518611,114.834603
0.601944,113.905478
0.685278,112.773106
0.768611,111.940765
0.851944,111.060032
0.935278,110.11155
1.018611,109.240495
1.101944,108.388797
1.185278,107.537099
1.268611,106.685401
1.351944,105.891773
1.435,105.059432
1.518333,104.217412
1.601667,103.423784
1.685,102.591443
1.768333,101.778459
1.851667,100.946117
1.935,100.142811
2.018333,99.358862
2.101667,98.584591
2.185,97.81032
2.268056,97.02637
2.351389,96.281135
2.434722,95.535899
2.518056,94.800341
2.601389,94.093819
2.684722,93.338905
2.768056,92.622704
2.851389,91.964574
2.934722,91.248373
3.018056,90.570886
3.101389,89.912756
3.184444,89.322374
3.267778,88.683601
3.351111,88.073862
3.434444,87.464124
3.517778,86.864064
3.601111,86.283361
3.684444,85.683301
3.767778,85.073562
3.851111,84.444467
3.934444,83.815372
4.0175,83.234669
4.100833,82.615252
4.184167,81.995835
4.2675,81.405454
4.350833,80.834429
4.434167,80.292439
4.5175,79.760128
4.600833,79.227816
4.684167,78.72454
4.7675,78.269656
4.850833,77.785737
4.933889,77.282461
5.017222,76.837255
5.100556,76.353335
5.183889,75.879094
5.267222,75.433889
5.350556,74.988683
5.433889,74.562834
5.517222,74.46605
5.600556,74.427336
5.683889,74.369266
5.767222,74.311196
5.850278,74.243447
5.933611,74.16602
6.016944,74.098271
6.100278,74.030522
6.183611,73.953095
6.266944,73.875668
6.350278,73.788563
6.433611,73.701457
6.516944,73.604673
6.600278,73.498211
6.683611,73.391749
6.766667,73.285287
6.85,73.188503
6.933333,73.072362
7.016667,72.9659
7.1,72.849759
7.183333,72.743297
7.266667,72.598121
7.35,72.472302
7.433333,72.336805
7.516667,72.220664
7.599722,72.06581
7.683056,71.930312
7.766389,71.76578
7.849722,71.601247
7.933056,71.456071
8.016389,71.320574
8.099722,71.156041
8.183056,71.010866
8.266389,70.856011
8.349722,70.701157
8.433056,70.555981
8.516111,70.391449
8.599444,70.255951
8.682778,70.091419
8.766111,69.926886
8.849444,69.78171
8.932778,69.617178
9.016111,69.462324
9.099444,69.30747
9.182778,69.133259
9.266111,68.978404
9.349444,68.813872
9.4325,68.649339
9.515833,68.484807
9.599167,68.310596
9.6825,68.136385
9.765833,67.962174
9.849167,67.797641
9.9325,67.613752
10.015833,67.429862
10.099167,67.255651
10.1825,67.071762
10.265833,66.897551
10.348889,66.742697
10.432222,66.558808
10.515556,66.403953
10.598889,66.249099
10.682222,66.084567
10.765556,65.939391
10.848889,65.794215
10.932222,65.629682
11.015556,65.494185
11.098889,65.349009
11.182222,65.184477
11.265278,65.029622
11.348611,64.894125
11.431944,64.758628
11.515278,64.603773
11.598611,64.458598
11.681944,64.332779
11.765278,64.187603
11.848611,64.052105
11.931944,63.916608
12.015278,63.790789
12.098333,63.635935
12.181667,63.510116
12.265,63.374618
12.348333,63.239121
12.431667,63.093945
12.515,62.948769
12.598333,62.813272
12.681667,62.677774
12.765,62.52292
12.848333,62.358388
12.931667,62.213212
13.014722,62.058358
13.098056,61.932538
13.181389,61.797041
13.264722,61.661544
13.348056,61.516368
13.431389,61.390549
13.514722,61.245373
13.598056,61.090519
13.681389,60.935665
13.764722,60.800167
13.848056,60.674348
13.931111,60.529172
14.014444,60.403353
14.097778,60.296891
14.181111,60.161394
14.264444,60.016218
14.347778,59.909756
14.431111,59.793615
14.514444,59.667796
14.597778,59.541977
14.681111,59.445193
14.764444,59.329052
14.8475,59.232268
14.930833,59.077414
15.014167,58.970952
15.0975,58.86449
15.180833,58.767706
15.264167,58.651565
15.3475,58.525746
15.430833,58.419284
15.514167,58.332178
15.5975,58.206359
15.680556,58.08054
15.763889,57.974078
15.847222,57.867616
15.930556,57.761154
16.013889,57.654691
16.097222,57.548229
16.180556,57.441767
16.263889,57.344983
16.347222,57.248199
16.430556,57.161094
16.513889,57.035275
16.596944,56.948169
16.680278,56.851385
16.763611,56.754601
16.846944,56.657817
16.930278,56.551355
17.013611,56.46425
17.096944,56.386823
17.180278,56.299717
17.263611,56.22229
17.346944,56.115828
17.430278,56.048079
17.513333,55.970652
17.596667,55.893225
17.68,55.825476
17.763333,55.757727
17.846667,55.6803
17.93,55.583516
18.013333,55.486733
18.096667,55.448019
18.18,55.438341
18.263333,55.438341
18.346667,55.438341
18.429722,55.448019
18.513056,55.448019
18.596389,55.448019
18.679722,55.457697
18.763056,55.457697
18.846389,55.457697
18.929722,55.467376
19.013056,55.457697
19.096389,55.467376
19.179722,55.467376
19.262778,55.477054
19.346111,55.486733
19.429444,55.496411
19.512778,55.496411
19.596111,55.515768
19.679444,55.525446
19.762778,55.535125
19.846111,55.535125
19.929444,55.544803
20.012778,55.554481
20.096111,55.554481
20.179167,55.56416
20.2625,55.573838
20.345833,55.573838
20.429167,55.583516
20.5125,55.593195
20.595833,55.612552
20.679167,55.612552
20.7625,55.62223
20.845833,55.62223
20.929167,55.641587
21.0125,55.641587
21.095556,55.641587
21.178889,55.660944
21.262222,55.651265
21.345556,55.660944
21.428889,55.6803
21.512222,55.6803
21.595556,55.6803
21.678889,55.6803
21.762222,55.6803
21.845556,55.689979
21.928611,55.689979
22.011944,55.689979
22.095278,55.699657
22.178611,55.699657
22.261944,55.709336
22.345278,55.699657
22.428611,55.719014
22.511944,55.728692
22.595278,55.738371
22.678611,55.728692
22.761944,55.738371
22.845,55.738371
22.928333,55.748049
23.011667,55.748049
23.095,55.748049
23.178333,55.757727
23.261667,55.757727
23.345,55.767406
23.428333,55.786763
23.511667,55.806119
23.595,55.806119
23.678333,55.806119
23.761389,55.815798
23.844722,55.825476
23.928056,55.825476
24.011389,55.835155
24.094722,55.844833
24.178056,55.844833
24.261389,55.854511
24.344722,55.86419
24.428056,55.883546
24.511389,55.902903
24.594444,55.92226
24.677778,55.931938
24.761111,55.931938
24.844444,55.951295
24.927778,55.960974
25.011111,55.970652
25.094444,55.98033
25.177778,55.999687
25.261111,56.009366
25.344444,56.019044
25.427778,56.038401
25.510833,56.048079
25.594167,56.057757
25.6775,56.077114
25.760833,56.086793
25.844167,56.106149
25.9275,56.125506
26.010833,56.144863
26.094167,56.154541
26.1775,56.16422
26.260833,56.173898
26.344167,56.193255
26.427222,56.22229
26.510556,56.231968
26.593889,56.241647
26.677222,56.261004
26.760556,56.270682
26.843889,56.28036
26.927222,56.299717
27.010556,56.299717
27.093889,56.319074
27.177222,56.338431
27.260556,56.348109
27.343611,56.357787
27.426944,56.367466
27.510278,56.386823
27.593611,56.396501
27.676944,56.415858
27.760278,56.425536
27.843611,56.435215
27.926944,56.444893
28.010278,56.454571
28.093611,56.473928
28.176667,56.483606
28.26,56.502963
28.343333,56.512642
28.426667,56.531998
28.51,56.531998
28.593333,56.561034
28.676667,56.570712
28.76,56.58039
28.843333,56.599747
28.926667,56.609426
29.01,56.609426
29.093056,56.619104
29.176389,56.628782
29.259722,56.667496
29.343056,56.677174
29.426389,56.686853
29.509722,56.706209
29.593056,56.706209
29.676389,56.725566
29.759722,56.735245
29.843056,56.744923
29.926389,56.754601
30.009444,56.754601
30.092778,56.773958
30.176111,56.793315
30.259444,56.812672
30.342778,56.82235
30.426111,56.832028
30.509444,56.861064
30.592778,56.861064
30.676111,56.88042
30.759444,56.899777
30.8425,56.909456
30.925833,56.928812
31.009167,56.938491
31.0925,56.967526
31.175833,56.977204
31.259167,56.996561
31.3425,57.006239
31.425833,57.035275
31.509167,57.035275
31.5925,57.054631
31.675833,57.073988
31.758889,57.073988
31.842222,57.083666
31.925556,57.093345
32.008889,57.103023
32.092222,57.141737
32.175556,57.151415
32.258889,57.161094
32.342222,57.170772
32.425556,57.170772
32.508889,57.18045
32.592222,57.199807
32.675278,57.190129
32.758611,57.209486
32.841944,57.209486
32.925278,57.228842
33.008611,57.238521
33.091944,57.238521
33.175278,57.248199
33.258611,57.257877
33.341944,57.267556
33.425278,57.277234
33.508611,57.286913
33.591667,57.306269
33.675,57.306269
33.758333,57.315948
33.841667,57.325626
33.925,57.344983
34.008333,57.354661
34.091667,57.36434
34.175,57.393375
34.258333,57.393375
34.341667,57.403053
34.424722,57.412732
34.508056,57.42241
34.591389,57.432088
34.674722,57.432088
34.758056,57.451445
34.841389,57.451445
34.924722,57.461124
35.008056,57.48048
35.091389,57.499837
35.174722,57.509516
35.258056,57.519194
35.341111,57.538551
35.424444,57.548229
35.507778,57.557907
35.591111,57.567586
35.674444,57.577264
35.757778,57.586943
35.841111,57.596621
35.924444,57.606299
36.007778,57.625656
36.091111,57.645013
36.174444,57.654691
36.2575,57.66437
36.340833,57.674048
36.424167,57.693405
36.5075,57.703083
36.590833,57.712762
36.674167,57.72244
36.7575,57.741797
36.840833,57.741797
36.924167,57.751475
37.0075,57.761154
37.090833,57.770832
37.173889,57.78051
37.257222,57.790189
37.340556,57.799867
37.423889,57.819224
37.507222,57.828902
37.590556,57.838581
37.673889,57.848259
37.757222,57.857937
37.840556,57.857937
37.923889,57.828902
38.007222,57.828902
38.090278,57.819224
38.173611,57.799867
38.256944,57.799867
38.340278,57.78051
38.423611,57.761154
38.506944,57.751475
38.590278,57.741797
38.673611,57.741797
38.756944,57.712762
38.840278,57.712762
38.923333,57.693405
39.006667,57.683726
39.09,57.674048
39.173333,57.66437
39.256667,57.645013
39.34,57.645013
39.423333,57.625656
39.506667,57.615978
39.59,57.606299
39.673333,57.596621
39.756667,57.586943
39.839722,57.586943
39.923056,57.567586
40.006389,57.567586
40.089722,57.548229
40.173056,57.548229
40.256389,57.548229
40.339722,57.528872
40.423056,57.538551
40.506389,57.528872
40.589722,57.509516
40.673056,57.509516
40.756111,57.499837
40.839444,57.499837
40.922778,57.490159
41.006111,57.490159
41.089444,57.490159
41.172778,57.48048
41.256111,57.470802
41.339444,57.470802
41.422778,57.461124
41.506111,57.461124
41.589444,57.451445
41.6725,57.451445
41.755833,57.451445
41.839167,57.441767
41.9225,57.432088
42.005833,57.432088
42.089167,57.42241
42.1725,57.42241
42.255833,57.412732
42.339167,57.412732
42.4225,57.403053
42.505556,57.412732
42.588889,57.403053
42.672222,57.393375
42.755556,57.393375
42.838889,57.393375
42.922222,57.393375
43.005556,57.383696
43.088889,57.383696
43.172222,57.383696
43.255556,57.383696
43.338889,57.374018
43.421944,57.374018
43.505278,57.36434
43.588611,57.354661
43.671944,57.354661
43.755278,57.354661
43.838611,57.354661
43.921944,57.344983
44.005278,57.344983
44.088611,57.335305
44.171944,57.335305
44.255278,57.325626
44.338333,57.325626
44.421667,57.315948
44.505,57.315948
44.588333,57.315948
44.671667,57.306269
44.755,57.296591
44.838333,57.296591
44.921667,57.286913
45.005,57.296591
45.088333,57.286913
45.171667,57.267556
45.254722,57.219164
45.338056,57.151415
45.421389,57.093345
45.504722,57.044953
45.588056,56.996561
45.671389,56.948169
45.754722,56.890099
45.838056,56.841707
45.921389,56.793315
46.004722,56.744923
46.087778,56.686853
46.171111,56.628782
46.254444,56.590069
46.337778,56.541677
46.421111,56.493285
46.504444,56.444893
46.587778,56.386823
46.671111,56.357787
46.754444,56.309396
46.837778,56.251325
46.921111,56.212612
47.004167,56.173898
47.0875,56.115828
47.170833,56.086793
47.254167,56.038401
47.3375,55.990009
47.420833,55.941617
47.504167,55.902903
47.5875,55.86419
47.670833,55.825476
47.754167,55.786763
47.8375,55.757727
47.920556,55.728692
48.003889,55.689979
48.087222,55.651265
48.170556,55.602873
48.253889,55.56416
48.337222,55.554481
48.420556,55.515768
48.503889,55.477054
48.587222,55.448019
48.670556,55.418984
48.753889,55.399627
48.836944,55.38027
48.920278,55.341557
49.003611,55.312522
49.086944,55.293165
49.170278,55.273808
49.253611,55.235095
49.336944,55.215738
49.420278,55.186703
49.503611,55.167346
49.586944,55.147989
49.67,55.138311
49.753333,55.099597
49.836667,55.070562
49.92,55.060884
50.003333,55.041527
50.086667,55.02217
50.17,54.993135
50.253333,54.983456
50.336667,54.973778
50.42,54.944743
50.503333,54.925386
50.586389,54.915708
50.669722,54.896351
50.753056,54.876994
50.836389,54.857637
50.919722,54.847959
51.003056,54.838281
51.086389,54.828602
51.169722,54.809246
51.253056,54.799567
51.336389,54.789889
51.419722,54.78021
51.502778,54.760854
51.586111,54.751175
51.669444,54.741497
51.752778,54.731818
51.836111,54.712462
51.919444,54.702783
52.002778,54.693105
52.086111,54.693105
52.169444,54.683426
52.252778,54.673748
52.335833,54.66407
52.419167,54.654391
52.5025,54.654391
52.585833,54.644713
52.669167,54.635035
52.7525,54.615678
52.835833,54.605999
52.919167,54.596321
53.0025,54.596321
53.085833,54.586643
53.169167,54.586643
53.252222,54.576964
53.335556,54.567286
53.418889,54.567286
53.502222,54.557607
53.585556,54.547929
53.668889,54.538251
53.752222,54.547929
53.835556,54.538251
53.918889,54.528572
54.002222,54.528572
54.085556,54.518894
54.168611,54.509215
54.251944,54.499537
54.335278,54.509215
54.418611,54.499537
54.501944,54.470502
54.585278,54.441467
54.668611,54.393075
54.751944,54.344683
54.835278,54.296291
54.918611,54.247899
55.001944,54.189829
55.085,54.151115
55.168333,54.093045
55.251667,54.044653
55.335,53.996261
55.418333,53.947869
55.501667,53.899477
55.585,53.860764
55.668333,53.802693
55.751667,53.76398
55.835,53.725266
55.918056,53.667196
56.001389,53.638161
56.084722,53.570412
56.168056,53.541377
56.251389,53.483306
56.334722,53.454271
56.418056,53.425236
56.501389,53.376844
56.584722,53.347809
56.668056,53.318774
56.751389,53.289739
56.834444,53.251025
56.917778,53.22199
57.001111,53.192955
57.084444,53.16392
57.167778,53.134885
57.251111,53.076814
57.334444,53.057457
57.417778,53.028422
57.501111,52.999387
57.584444,52.960674
57.667778,52.931638
57.750833,52.892925
57.834167,52.873568
57.9175,52.844533
58.000833,52.825176
58.084167,52.805819
58.1675,52.767106
58.250833,52.738071
58.334167,52.718714
58.4175,52.689679
58.500833,52.660644
58.583889,52.631608
58.667222,52.602573
58.750556,52.573538
58.833889,52.56386
58.917222,52.534825
59.000556,52.515468
59.083889,52.486433
59.167222,52.467076
59.250556,52.447719
59.333889,52.418684
59.417222,52.389649
59.500278,52.370292
59.583611,52.350935
59.666944,52.3219
59.750278,52.312222
59.833611,52.283186
59.916944,52.273508
60.000278,52.244473
60.083611,52.225116
60.166944,52.196081
60.250278,52.176724
60.333611,52.167046
60.416667,52.138011
60.5,52.108975
60.583333,52.089619
60.666667,52.060584
60.75,52.041227
60.833333,52.031548
60.916667,52.031548
61.0,52.031548
61.083333,52.050905
61.166667,52.060584
61.25,52.060584
61.333056,52.089619
61.416389,52.099297
61.499722,52.108975
61.583056,52.128332
61.666389,52.138011
61.749722,52.157367
61.833056,52.167046
61.916389,52.176724
61.999722,52.196081
62.083056,52.205759
62.166111,52.205759
62.249444,52.196081
62.332778,52.186403
62.416111,52.167046
62.499444,52.147689
62.582778,52.108975
62.666111,52.099297
62.749444,52.07994
62.832778,52.060584
62.916111,52.060584
62.999444,52.031548
63.0825,51.973478
63.165833,51.867016
63.249167,51.741197
63.3325,51.625056
63.415833,51.537951
63.499167,51.47988
63.5825,51.431488
63.665833,51.441167
63.749167,51.47988
63.8325,51.489559
63.915833,51.412132
63.998889,51.286313
64.082222,51.170172
64.165556,51.141137
64.248889,51.073388
64.332222,51.073388
64.415556,51.102423
64.498889,51.150815
64.582222,51.17985
64.665556,51.189529
64.748889,51.199207
64.831944,51.131458
64.915278,51.005639
64.998611,50.947569
65.081944,50.957247
65.165278,50.957247
65.248611,50.966926
65.331944,50.966926
65.415278,50.928212
65.498611,50.937891
65.581944,50.966926
65.665278,51.044353
65.748333,51.092745
65.831667,51.044353
65.915,51.015318
65.998333,50.957247
66.081667,50.957247
66.165,50.928212
66.248333,50.899177
66.331667,50.918534
66.415,51.015318
66.498333,50.995961
66.581667,50.947569
66.664722,50.860464
66.748056,50.754001
66.831389,50.560434
66.914722,50.405579
66.998056,50.270082
67.081389,50.134584
67.164722,50.037801
67.248056,49.931338
67.331389,49.824876
67.414722,49.757127
67.497778,49.728092
67.581111,49.708735
67.664444,49.650665
67.747778,49.466776
67.831111,49.311922
67.914444,49.176424
67.997778,49.07964
68.081111,49.031248
68.164444,48.9635
68.247778,48.857037
68.331111,48.837681
68.414167,48.828002
68.4975,48.828002
68.580833,48.77961
68.664167,48.673148
68.7475,48.537651
68.830833,48.440867
68.914167,48.402153
68.9975,48.286013
69.080833,48.150515
69.164167,48.015018
69.2475,47.966626
69.330556,47.956947
69.413889,47.956947
69.497222,47.976304
69.580556,47.918234
69.663889,47.802093
69.747222,47.637561
69.830556,47.511742
69.913889,47.385923
69.997222,47.260103
70.080556,47.134284
70.163611,47.056857
70.246944,47.037501
70.330278,47.056857
70.413611,47.066536
70.496944,47.066536
70.580278,47.076214
70.663611,47.095571
70.746944,46.989109
70.830278,46.882646
70.913611,46.737471
70.996944,46.650365
71.08,46.543903
71.163333,46.418084
71.246667,46.369692
71.33,46.369692
71.413333,46.408405
71.496667,46.418084
71.58,46.418084
71.663333,46.408405
71.746667,46.330978
71.83,46.234194
71.913056,46.137411
71.996389,46.040627
72.079722,45.943843
72.163056,45.847059
72.246389,45.730918
72.329722,45.692205
72.413056,45.66317
72.496389,45.672848
72.579722,45.72124
72.663056,45.682526
72.746389,45.556707
72.829444,45.450245
72.912778,45.305069
72.996111,45.198607
73.079444,45.005039
73.162778,44.946969
73.246111,45.005039
73.329444,45.072788
73.412778,45.082466
73.496111,45.024396
73.579444,45.014718
73.662778,45.034074
73.745833,45.014718
73.829167,44.908255
73.9125,44.811472
73.995833,44.724366
74.079167,44.656617
74.1625,44.588869
74.245833,44.52112
74.329167,44.52112
74.4125,44.472728
74.495833,44.414658
74.578889,44.404979
74.662222,44.298517
74.745556,44.27916
74.828889,44.172698
74.912222,44.085592
74.995556,44.066236
75.078889,44.037201
75.162222,43.969452
75.245556,43.92106
75.328889,43.901703
75.412222,43.833954
75.495278,43.872668
75.578611,43.882346
75.661944,43.775884
75.745278,43.766206
75.828611,43.727492
75.911944,43.688779
75.995278,43.669422
76.078611,43.533924
76.161944,43.485532
76.245278,43.388749
76.328611,43.37907
76.411667,43.311322
76.495,43.359713
76.578333,43.301643
76.661667,43.175824
76.745,43.137111
76.828333,43.117754
76.911667,43.195181
76.995,43.185502
77.078333,43.146789
77.161667,43.030648
77.244722,43.02097
77.328056,42.943543
77.411389,42.875794
77.494722,42.798367
77.578056,42.701583
77.661389,42.682226
77.744722,42.711262
77.828056,42.643513
77.911389,42.643513
77.994722,42.585442
78.078056,42.566086
78.161111,42.575764
78.244444,42.459623
78.327778,42.430588
78.411111,42.498337
78.494444,42.411232
78.577778,42.333804
78.661111,42.295091
78.744444,42.266056
78.827778,42.314448
78.911111,42.36284
78.994444,42.42091
79.0775,42.430588
79.160833,42.382196
79.244167,42.333804
79.3275,42.295091
79.410833,42.266056
79.494167,42.246699
79.5775,42.246699
79.660833,42.246699
79.744167,42.343483
79.8275,42.324126
79.910556,42.401553
79.993889,42.314448
80.077222,42.401553
80.160556,42.469302
80.243889,42.47898
80.327222,42.604799
80.410556,42.614478
80.493889,42.604799
80.577222,42.585442
80.660556,42.604799
80.743889,42.527372
80.826944,42.566086
80.910278,42.633834
80.993611,42.604799
81.076944,42.633834
81.160278,42.682226
81.243611,42.691905
81.326944,42.769332
81.410278,42.77901
81.493611,42.77901
81.576944,42.885472
81.660278,42.866116
81.743333,42.808045
81.826667,42.837081
81.91,42.817724
81.993333,42.914508
82.076667,42.885472
82.16,42.914508
82.243333,42.982256
82.326667,43.02097
82.41,43.001613
82.493333,42.982256
82.576389,43.001613
82.659722,42.991935
82.743056,42.972578
82.826389,43.069362
82.909722,42.953221
82.993056,42.933864
83.076389,42.972578
83.159722,43.02097
83.243056,43.117754
83.326389,43.108075
83.409722,43.185502
83.492778,43.224216
83.576111,43.243573
83.659444,43.224216
83.742778,43.137111
83.826111,43.166146
83.909444,43.030648
83.992778,42.943543
84.076111,42.904829
