time,pressure
0.0,75.671587
24.0,66.771342
48.0,58.07144
72.0,53.171273
96.0,49.771255
120.0,47.071953
144.0,45.07143
168.0,42.871533
192.0,41.271695
216.0,40.071575
240.0,39.771545
264.0,38.871455
288.0,39.571203
312.0,40.371605
336.0,41.172008
360.0,41.871755
384.0,43.371905
408.0,43.171563
432.0,42.07113
456.0,42.37116
480.0,50.371315
504.0,60.371993
528.0,71.471167
552.0,84.071459
576.0,97.271812
600.0,109.071701
624.0,118.471351
648.0,125.972101
672.0,131.471361
696.0,135.771468
720.0,139.171485
744.0,141.772068
768.0,143.971965
792.0,145.771178
816.0,147.371983
840.0,148.67179
864.0,149.971598
888.0,150.971375
912.0,151.771778
936.0,152.271183
960.0,153.271928
984.0,153.871988
1008.0,154.772078
1032.0,155.271483
1056.0,155.771855
1080.0,156.371915
1104.0,156.771633
1128.0,157.371693
1152.0,157.77141
1176.0,157.77141
1200.0,158.771187
1224.0,158.771187
1248.0,159.171873
1272.0,159.771933
1296.0,159.771933
1320.0,160.47168
1344.0,160.77171
1368.0,160.77171
1392.0,161.571145
1416.0,161.771487
1440.0,161.771487
1464.0,162.171205
1488.0,162.771265
1512.0,162.771265
1536.0,152.371838
1560.0,72.671287
1584.0,50.772
1608.0,51.671123
1632.0,52.671868
1656.0,50.17194
1680.0,47.271328
1704.0,44.971743
1728.0,43.171563
1752.0,41.7711
1776.0,42.571503
1800.0,45.97152
1824.0,47.271328
1848.0,48.67179
1872.0,48.271105
1896.0,47.17164
1920.0,44.871088
1968.0,42.171785
1992.0,41.871755
2016.0,42.771845
2040.0,41.7711
2064.0,43.371905
2088.0,43.971965
2112.0,42.471815
2136.0,47.371983
2160.0,47.571358
2184.0,46.87161
2208.0,49.57188
2232.0,63.17195
2256.0,71.271792
2280.0,70.371702
2304.0,80.171069
2328.0,64.071072
2352.0,64.771787
2376.0,60.571367
2400.0,69.171582
2424.0,66.271937
2448.0,64.171727
2472.0,62.971607
2496.0,61.771487
2520.0,60.971085
2544.0,60.77171
2568.0,60.47168
2592.0,59.771933
2616.0,59.771933
2640.0,59.771933
2664.0,59.471903
2688.0,58.771187
2712.0,58.771187
2736.0,59.371247
2760.0,59.771933
2784.0,59.771933
2808.0,59.771933
2832.0,59.771933
2856.0,59.171873
2880.0,56.771633
2904.0,54.571735
2928.0,53.271928
2952.0,51.771778
2976.0,50.47197
3000.0,49.57188
3024.0,48.771478
3048.0,48.171418
3072.0,48.171418
3096.0,47.7717
3120.0,46.771923
3144.0,46.371238
3168.0,45.771178
3192.0,45.771178
3216.0,44.971743
3240.0,44.7714
3264.0,44.671713
3288.0,44.47137
3312.0,43.771623
3336.0,43.771623
3360.0,42.871533
3384.0,42.771845
3408.0,42.771845
3432.0,42.271473
3456.0,41.7711
3480.0,41.7711
3504.0,41.7711
3528.0,41.7711
3552.0,41.7711
3576.0,41.7711
3600.0,41.671413
3624.0,40.971665
3648.0,41.071353
3672.0,40.771323
3696.0,40.771323
3720.0,40.771323
3744.0,40.771323
3768.0,40.771323
3792.0,40.771323
3816.0,40.771323
3840.0,40.771323
3864.0,40.771323
3888.0,40.771323
3912.0,40.771323
3936.0,40.771323
3960.0,40.471293
3984.0,40.471293
4008.0,39.771545
4032.0,39.771545
4056.0,39.771545
4080.0,39.771545
4104.0,39.771545
4128.0,39.771545
4152.0,39.771545
4176.0,39.771545
4200.0,39.771545
4224.0,39.771545
4248.0,39.771545
4272.0,39.771545
4296.0,39.771545
4320.0,39.771545
4344.0,39.771545
4368.0,39.771545
4392.0,39.771545
4416.0,39.771545
4440.0,39.771545
4464.0,39.771545
4488.0,39.771545
4512.0,39.771545
4536.0,39.771545
4560.0,39.771545
4584.0,39.771545
4608.0,39.771545
4632.0,39.771545
4656.0,39.771545
4680.0,39.771545
4704.0,39.771545
4728.0,39.771545
4752.0,39.771545
4776.0,39.871233
4800.0,37.771991
4824.0,35.871155
4848.0,37.771991
4872.0,46.27155
4896.0,39.071798
4920.0,37.571648
4944.0,36.271841
4968.0,35.771468
4992.0,37.571648
5016.0,36.571871
5040.0,35.971811
5064.0,35.571125
5088.0,35.471438
5112.0,35.071721
5136.0,35.071721
5160.0,34.871378
5184.0,34.871378
5208.0,35.171408
5232.0,34.571348
5256.0,34.371973
5280.0,39.571203
5304.0,44.371683
5328.0,49.971598
5352.0,41.472038
5376.0,42.271473
5400.0,49.87191
5424.0,41.871755
5448.0,39.771545
5472.0,37.971365
5496.0,36.971588
5520.0,35.671781
5544.0,35.671781
5568.0,36.771245
5592.0,38.171708
5616.0,43.371905
5640.0,38.671113
5664.0,44.572025
5688.0,41.071353
5712.0,43.171563
5736.0,46.971298
5760.0,43.771623
5784.0,45.871833
5808.0,45.67149
5832.0,45.37146
5856.0,45.271773
5880.0,45.271773
5904.0,45.271773
5928.0,45.271773
5952.0,45.37146
5976.0,45.67149
6000.0,45.871833
6024.0,46.071208
6048.0,46.171863
6072.279167,46.362527
6074.529722,46.394466
6076.521944,46.415758
6078.567778,46.426404
6078.937778,46.424469
6082.662778,46.426404
6084.7275,46.41479
6085.443611,46.379948
6090.881944,46.318007
6092.370278,46.290907
6093.134722,46.258968
6094.069444,46.233805
6095.999722,46.395434
6097.142222,46.185413
6099.276667,46.149603
6100.661944,46.130246
6102.85,46.109921
6104.156389,46.098307
6106.696944,46.095404
6109.603611,46.126374
6114.948056,46.168959
6116.86,46.207673
6119.505833,46.269615
6119.999722,46.14186
6121.055278,46.315103
6123.435833,46.378013
6125.099444,46.432212
6126.850556,46.493185
6129.472222,46.553191
6130.0875,46.579323
6132.995278,46.646104
6136.709444,46.684817
6141.067778,46.701271
6143.608611,46.668364
6143.999722,46.460279
6145.411111,46.629651
6146.746667,46.580291
6149.1325,46.498025
6151.620278,46.331556
6153.89,46.218319
6157.828889,46.027655
6159.761667,45.8999
6161.651389,45.744078
6163.868889,45.571803
6167.999722,46.393498
6177.965278,44.352326
6182.185,44.124884
6184.760556,43.945834
6186.617222,43.785173
6188.711944,43.574184
6191.966667,43.364163
6191.999722,44.72688
6193.467222,43.220923
6195.81,43.054454
6197.679444,42.912182
6199.960833,42.784427
6202.160833,42.661512
6203.941667,42.540532
6204.926944,42.437941
6207.187222,42.303412
6209.582222,42.160171
6212.389722,42.012092
6214.216667,41.94144
6214.608889,41.871755
6215.999722,42.901536
6216.69,41.736258
6218.458333,41.620117
6220.153056,41.509784
6222.648056,41.431389
6222.890833,41.368479
6224.498889,41.300731
6226.816944,41.188461
6227.971111,41.107163
6230.927222,40.914563
6234.7125,40.747127
6236.811944,40.622276
6239.165556,40.545816
6239.365278,40.52162
6239.759167,40.469357
6239.999722,41.416871
6240.8425,40.425804
6241.080278,40.416126
6241.345556,40.362895
6242.2725,40.291275
6244.486667,40.169327
6246.398611,40.118032
6247.231111,40.037701
6249.3625,39.938014
6251.015278,39.848005
6253.346944,39.748317
6254.702222,39.673794
6257.41,39.574106
6259.339167,39.511197
6261.190556,39.475387
6263.063889,39.458934
6263.999722,40.093836
6265.381667,39.492808
6268.098889,39.52765
6270.809167,39.589592
6273.055556,39.655405
6274.873889,39.710572
6277.311944,39.766706
6279.355,39.817034
6280.973611,39.874136
6285.159167,39.938014
6286.735556,39.971888
6287.999722,39.598302
6289.051389,40.010602
6291.447778,40.047379
6293.6125,40.077382
6295.251944,40.118032
6299.197222,40.158681
6301.274444,40.179973
6302.801667,40.194491
6304.726667,40.208041
6306.336667,40.230301
6311.305833,40.255465
6311.999722,40.085125
6312.976667,40.266111
6314.495278,40.277725
6317.405556,40.296114
6318.339167,40.30676
6320.543333,40.322246
6322.290833,40.339667
6327.494722,40.361927
6329.117778,40.36967
6335.999722,40.301921
6344.188056,40.408383
6346.482222,40.409351
6347.279722,40.410319
6350.105278,40.410319
6351.809722,40.410319
6353.473889,40.41419
6356.628056,40.419997
6358.554167,40.496457
6358.87,40.52162
6359.999722,40.402576
6360.964167,40.537106
6361.323056,40.538074
6364.851111,40.561302
6367.19,40.571948
6368.536111,40.571948
6370.661389,40.574852
6373.196667,40.49936
6374.911944,40.474196
6376.063889,40.469357
6378.995278,40.462582
6380.105,40.457743
6383.228056,40.449033
6383.999722,40.514846
6385.423889,40.44129
6387.140556,40.431611
6388.803889,40.421933
6391.300833,40.40548
6393.827778,40.39193
6394.958889,40.385155
6396.794167,40.374509
6399.199722,40.365798
6400.384167,40.361927
6403.165,40.35612
6405.636944,40.353217
6407.613611,40.349345
6407.999722,40.410319
6409.754444,40.344506
6411.590833,40.338699
6413.233889,40.332892
6415.782778,40.324181
6417.583889,40.314503
6418.746111,40.304825
6421.382778,40.292243
6423.389444,40.280629
6425.394167,40.269015
6427.891111,40.255465
6428.085278,40.249658
6430.947222,40.233205
6431.191667,40.228365
6431.999722,40.323214
6434.337778,40.210944
6437.361389,40.192555
6439.269722,40.174166
6441.548611,40.151906
6443.530833,40.12771
6445.284444,40.099643
6446.254444,40.082222
6449.343333,40.053187
6451.399167,40.034798
6453.119167,40.02028
6455.465,40.003827
6455.999722,40.169327
6457.145556,39.991245
6458.196389,39.977695
6461.675833,39.94866
6464.536111,39.927367
6466.660556,39.909946
6468.193333,39.897364
6470.334444,39.880911
6473.171944,39.860587
6474.605833,39.842198
6476.911111,39.81897
6478.656111,39.799613
6479.999722,39.946724
6481.106944,39.772513
6482.524444,39.721218
6486.943611,39.663148
6489.506944,39.614756
6491.506944,39.565396
6491.784444,39.532489
6495.086667,39.449255
6497.771111,39.386346
6499.547778,39.329243
6501.81,39.269237
6503.999722,39.664115
6515.790556,38.568522
6519.493611,38.3856
6521.774167,38.284945
6523.917222,38.193001
6525.566944,38.11267
6527.773333,38.007175
6527.999722,38.86952
6529.614167,37.902649
6531.737222,37.767151
6533.605278,37.648107
6534.7875,37.536806
6537.447222,37.371305
6539.555278,37.218387
6541.826389,37.065468
6543.480556,36.929003
6545.674444,36.766406
6547.252778,36.639619
6549.845,36.488637
6551.326111,36.38411
6551.999722,37.562937
6553.506111,36.267001
6555.741667,36.166346
6558.113889,36.08408
6560.006944,36.01246
6561.730278,35.94955
6563.893889,35.885673
6565.481667,35.834378
6567.276667,35.787921
6570.014444,35.724044
6571.988333,35.670813
6574.272778,35.61371
6575.899444,35.559511
6575.999722,36.09763
6578.200833,35.489827
6579.715,35.42595
6582.181389,35.356265
6583.538056,35.312712
6585.971944,35.281742
6587.838611,35.283677
6590.183611,35.267224
6591.449722,35.252706
6593.976667,35.241092
6596.259167,35.218832
6598.267778,35.18399
6599.999722,35.409496
6600.0875,35.123016
6602.411667,35.023329
6603.529722,34.971065
6605.515278,34.907188
6608.255278,34.84815
6610.248333,34.807501
6611.138889,34.779433
6613.201667,34.736848
6615.521944,34.69136
6616.711667,34.65555
6620.297222,34.586833
6621.333333,34.547152
6623.999722,34.924609
6624.471944,34.471661
6626.330556,34.417462
6628.468056,34.37778
6628.942222,34.354552
6630.328611,34.332292
6631.007778,34.317774
6631.401944,34.289707
6632.920833,34.250026
6635.544167,34.201634
6637.422778,34.167759
6639.532222,34.136788
6640.277222,34.118399
6642.518889,34.090332
6645.441389,34.057426
6647.513056,34.031294
6647.999722,34.323581
6649.326111,34.007098
6650.412222,33.979031
6652.471667,33.943221
6655.525278,33.8987
6657.457778,33.861922
6658.933611,33.837726
6661.674722,33.800948
6663.394444,33.781592
6665.689722,33.752556
6671.999722,33.917089
6682.681667,34.188084
6683.131667,34.211312
6683.4875,34.144531
6687.0575,34.679746
6695.999722,33.928703
6698.564444,37.102246
6700.496944,39.50539
6701.743889,40.56227
6704.266944,41.653024
6707.477778,42.842498
6709.193333,42.859919
6711.523333,42.133072
6715.648889,39.001146
6716.334167,38.574329
6718.341667,37.840707
6719.999722,39.255687
6720.804167,37.346142
6722.337222,37.271618
6725.932778,37.32001
6730.891389,37.626815
6731.845,37.607458
6736.71,37.533902
6740.737778,37.433247
6741.980833,37.361627
6743.999722,37.415826
6744.628611,37.2571
6746.2875,37.192255
6748.67,37.083857
6750.658333,36.990945
6752.126944,36.914486
6753.993611,36.666719
6754.641111,36.823509
6756.845278,36.724789
6757.220278,36.679301
6759.480556,36.524447
6766.201944,36.369592
6767.999722,37.003527
6769.196667,36.289262
6771.090556,36.224417
6772.682222,36.153764
6773.624444,36.104405
6777.179167,36.008589
6779.105833,35.939872
6781.303056,35.866316
6783.164167,35.799535
6783.857778,35.75695
6786.395,35.656295
6789.877222,35.573061
6791.999722,36.095694
6792.130278,35.514991
6795.196944,35.414336
6799.181667,35.332069
6800.776667,35.257546
6804.9475,35.176247
6806.305556,35.139469
6808.2825,35.094949
6810.548056,35.029136
6815.396389,34.932352
6815.999722,35.355297
6817.875278,34.882992
6820.673611,34.830729
6822.926944,34.782337
6824.511667,34.734913
6825.667778,34.694264
6829.568889,34.624579
6830.336389,34.596512
6832.920833,34.538441
6835.230833,34.457143
6838.169722,34.398105
6839.999722,34.788144
6841.470556,34.330356
6857.338333,33.973224
6859.555,33.933542
6859.961389,33.913218
6863.133056,33.870633
6863.999722,34.209376
6865.421667,33.831919
6866.160833,33.81353
6868.885278,33.780624
6870.7825,33.751589
6875.138333,33.722553
6877.210833,33.705132
6878.799167,33.687711
6881.559167,33.665451
6883.532778,33.63448
6885.546389,33.59867
6887.049722,33.564796
6887.999722,33.782559
6889.2025,33.526082
6889.991389,33.498015
6892.774167,33.437041
6896.6125,33.382842
6899.148056,33.327675
6902.201389,33.287026
6905.561667,33.247345
6907.949722,33.21347
6908.055278,33.197985
6909.895,33.16895
6911.999722,33.434138
6913.873333,33.1283
6915.447778,33.105072
6916.912778,33.084748
6920.0575,33.052809
6921.088056,33.03442
6923.548889,33.001514
6925.431944,32.974414
6927.703611,32.946347
6929.5875,32.920215
6929.862778,32.905698
6932.442222,32.876662
6935.396944,32.844724
6935.999722,33.067327
6936.534444,32.825367
6937.989444,32.794396
6942.184167,32.748908
6947.470556,32.708258
6949.816111,32.682127
6950.888889,32.66277
6953.773889,32.631799
6955.852778,32.608571
6957.674444,32.586311
6959.999722,32.764393
6960.068611,32.565986
6960.465833,32.556308
6963.304167,33.099265
6965.522222,34.094204
6967.563333,35.035911
6969.358056,35.875995
6971.274722,36.752856
6975.095,38.763058
6975.448333,38.884037
6980.128333,38.475609
6981.476667,37.825222
6983.905556,36.995784
6983.999722,36.14215
6986.242222,36.377335
6986.718889,36.24087
7007.999722,35.859541
7022.710833,46.118632
7023.914722,46.726434
7026.203889,47.204547
7028.881389,47.757183
7030.950833,48.254652
7031.999722,40.446129
7033.123333,48.740507
7035.218333,49.222491
7036.249167,49.637693
7037.5125,50.110966
7040.621111,50.754579
7042.912222,51.340122
7044.527222,51.772746
7047.133611,52.294411
7048.820833,52.735745
7049.749167,53.087071
7052.800833,53.742297
7055.241389,54.259123
7055.999722,50.183554
7057.142778,54.583349
7059.311944,54.894025
7060.255,55.248254
7062.538056,55.835733
7064.377222,56.369979
7067.104722,56.951651
7069.313056,57.320397
7071.343056,57.60591
7073.391111,57.884647
7074.404444,58.19242
7075.5525,58.524388
7077.700833,58.819579
7079.999722,55.844443
7080.581667,59.180583
7082.578333,59.393508
7083.648611,59.515455
7088.652778,60.042927
7103.510278,44.296191
7103.999722,59.854199
7116.8025,40.685185
7120.445278,40.065768
7122.459722,39.573139
7125.335556,39.423124
7126.882778,40.007698
7127.999722,51.042995
7128.114444,39.664115
7129.874444,39.393121
7132.485,38.750476
7134.841389,39.865426
7137.041944,39.598302
7139.572778,38.671113
7141.620556,37.745859
7145.954167,36.699625
7148.736389,36.393788
7151.159167,36.03472
7151.999722,39.990277
7152.797222,35.203347
7155.098889,35.529508
7156.828889,35.972778
7161.836111,35.562415
7166.884444,35.520798
7171.363056,35.122048
7175.999722,35.914708
7185.391944,34.243251
7187.271111,33.680936
7194.972778,33.521243
7195.889722,33.507693
7199.54,32.739229
7199.999722,35.048493
7201.4925,32.019157
7203.267778,32.065614
7206.078056,31.672671
7208.443611,31.600083
7210.833056,31.025187
7212.681111,30.547075
7216.129444,30.778388
7218.626667,31.146167
7220.593333,31.147135
7222.726944,31.676542
7223.999722,31.986251
7230.669167,32.164333
7232.606944,32.068517
7234.695278,31.978508
7236.519722,31.843979
7241.558056,33.567699
7242.978056,33.531889
7245.416944,32.660834
7247.674444,32.39855
7247.999722,31.014541
7248.179722,32.203047
7250.693056,32.0269
7254.404167,31.553627
7255.2,31.526527
7256.429722,30.327375
7258.276389,30.623534
7260.802778,30.480294
7263.433333,30.223816
7265.563611,29.074992
7267.579722,29.901526
7269.206111,29.857973
7271.208889,29.932497
7271.999722,31.18488
7275.583056,29.141773
7278.413056,29.285013
7281.010556,29.696344
7283.811667,29.680859
7285.3625,29.560847
7286.531667,29.464063
7288.785,30.081544
7291.513889,29.956693
7293.511667,29.895719
7295.246389,29.228878
7295.999722,29.68473
7296.743611,29.213393
7299.941944,29.221136
7301.522222,29.231782
7303.639722,28.794319
7306.568056,29.860877
7309.912778,29.865716
7313.372222,35.290452
7315.506944,35.89148
7315.913056,35.382397
7318.808333,35.62726
7319.999722,27.588392
7320.590556,34.133885
7323.5825,35.636938
7326.115556,34.247122
7327.459444,28.300721
7328.948611,27.931974
7331.818889,27.930039
7333.709722,27.895197
7335.653056,27.797445
7337.663611,26.810249
7343.999722,27.615491
7351.575556,28.933687
7352.707778,28.822386
7358.194167,29.194036
7359.820556,28.674307
7360.268611,28.640432
7362.423889,28.593008
7365.92,27.948428
7367.754444,27.930039
7367.999722,27.821641
7369.866944,29.414703
7371.1875,29.298563
7373.766667,33.605445
7375.735833,32.611475
7377.093889,32.927958
7379.276389,32.672448
7383.102222,32.333705
7388.016111,27.860354
7389.706389,28.11296
7391.997778,26.752179
7391.999722,29.672148
7393.1875,26.151151
7395.441667,26.239224
7397.913889,26.328266
7399.233056,26.753147
7405.114444,26.873159
7407.810833,27.600974
7413.680833,27.104472
7415.999722,27.324172
7416.098056,27.114151
7416.773611,29.023696
7419.77,28.515581
7421.583056,28.424604
7423.415556,28.230069
7425.716944,27.793573
7427.521667,27.840998
7430.078889,28.401376
7431.220833,27.181899
7434.174444,27.670658
7437.556111,28.287171
7439.652222,28.728506
7439.999722,28.642368
7441.753889,29.027568
7444.0125,29.087574
7445.740556,28.89207
7448.497222,30.012828
7449.995278,31.715256
7461.313333,33.751589
7463.844167,34.882024
7463.999722,29.770868
7469.901111,37.406148
7472.96,37.511642
7473.968333,37.077082
7475.048889,36.968685
7478.058056,36.561224
7482.1675,35.899223
7484.529444,35.265288
7486.100833,35.311745
7487.999722,34.849118
7488.350556,36.06182
7490.708056,36.676397
7491.978056,37.117732
7494.485556,39.776385
7498.259722,40.510974
7500.283056,39.294401
7501.912222,37.55713
7503.877222,37.080954
7511.999722,45.534057
7519.993611,33.963545
7524.161667,33.979999
7525.709444,33.774817
7528.664722,33.319933
7529.426667,33.147657
7531.607778,32.64051
7533.826389,31.239079
7535.999722,30.330279
7536.471667,31.150038
7538.545,31.131649
7542.405833,30.821941
7544.640278,30.443516
7546.420278,31.040672
7547.163056,30.974859
7551.309167,30.735803
7553.250556,30.568367
7556.45,30.24898
7558.938889,30.368024
7559.360833,29.665374
7559.999722,31.039705
7562.8025,29.198875
7564.704722,29.193068
7566.066667,29.982825
7568.797778,30.091223
7569.497222,30.172521
7571.196111,29.885073
7574.333611,30.235431
7575.447222,30.103804
7583.999722,30.339957
7584.719444,28.689792
7586.661667,28.872714
7588.756389,28.376212
7590.841389,28.30556
7591.962778,27.701629
7594.656944,27.569035
7596.2175,27.43257
7598.966389,27.566131
7599.803889,27.787766
7607.999722,29.3847
7608.192222,28.350081
7610.3775,27.708404
7612.976944,27.760667
7614.188889,27.748085
7616.487222,27.876808
7618.509444,27.556453
7619.542778,27.515804
7621.243889,27.505158
7625.748333,27.900036
7626.7875,27.871001
7629.128889,27.135443
7629.736389,27.175125
7631.999722,28.549456
7632.869167,27.231259
7633.709167,27.017367
7636.866389,26.742501
7637.858056,26.649588
7641.1825,26.059206
7641.648056,26.216964
7644.175833,26.839284
7647.252222,26.530544
7654.442778,26.929293
7655.999722,26.269227
7656.582222,26.933165
7660.873333,27.003817
7662.3275,27.002849
7665.276667,26.681527
7670.056944,26.50538
7679.999722,26.99801
7689.361111,26.754115
7690.170833,27.287394
7694.917778,27.49064
7697.188611,28.007466
7698.794722,28.098443
7700.5175,28.382987
7703.999722,27.109311
7705.416389,27.923264
7707.869444,27.757763
7709.139722,27.685176
7711.161667,27.269973
7711.9175,27.224484
7714.371389,26.893483
7716.829722,26.856706
7717.684167,26.989299
7721.165833,27.146089
7721.528333,27.382242
7725.262778,28.188452
7727.343056,30.640955
7727.999722,27.297072
7729.109167,32.586311
7730.550556,34.083557
7733.182222,35.289484
7735.127222,36.512832
7736.759444,36.592195
7739.247778,36.333782
