time,pressure
0.0,43.009458
2.0,41.460916
4.0,40.589861
6.0,39.622022
8.0,38.750967
10.0,38.267048
12.0,37.589561
14.0,37.008858
16.0,36.524938
18.0,35.944235
22.0,37.202425
24.0,37.879913
26.0,37.008858
28.0,35.653884
30.0,34.686045
32.0,33.911774
34.0,33.331071
36.0,32.750367
38.0,32.266448
40.0,31.782529
42.0,31.492177
44.0,31.201825
46.0,30.621122
48.0,30.330771
50.0,30.137203
52.0,29.943635
54.0,29.653283
56.0,29.459716
58.0,29.362932
60.0,29.266148
62.0,29.07258
64.0,29.07258
66.0,28.975796
68.0,28.975796
70.0,28.879012
72.0,28.782229
74.0,28.685445
76.0,28.685445
78.0,28.685445
80.0,28.588661
82.0,28.395093
84.0,28.395093
86.0,28.298309
88.0,28.298309
90.0,28.201525
94.0,28.201525
170.0,27.330471
172.0,27.330471
174.0,27.233687
190.0,26.265848
200.0,25.201225
206.0,25.394793
210.0,25.298009
212.0,25.201225
214.0,25.201225
216.0,25.201225
218.0,25.104441
220.0,25.104441
222.0,25.104441
224.0,25.007658
226.0,25.007658
228.0,24.910874
230.0,24.910874
232.0,24.81409
234.0,24.81409
236.0,25.007658
238.0,24.910874
240.0,24.81409
242.0,24.81409
244.0,24.81409
246.0,24.717306
248.0,24.717306
250.0,24.717306
252.0,24.620522
254.0,24.523738
256.0,24.523738
258.0,24.426954
260.0,24.523738
262.0,24.426954
264.0,24.330171
266.0,24.426954
268.0,24.233387
270.0,24.233387
272.0,24.233387
274.0,24.136603
276.0,24.136603
278.0,24.039819
280.0,23.943035
282.0,23.943035
284.0,23.846251
286.0,23.846251
288.0,23.749467
290.0,23.749467
292.0,23.652683
294.0,23.5559
296.0,23.5559
298.0,23.5559
300.0,23.459116
302.0,23.5559
304.0,23.265548
306.0,23.265548
308.0,23.265548
310.0,23.362332
312.0,23.265548
314.0,23.265548
316.0,23.362332
318.0,23.265548
320.0,23.362332
322.0,23.362332
324.0,23.265548
326.0,23.265548
336.0,23.943035
338.0,23.168764
340.0,23.362332
342.0,23.265548
344.0,23.459116
346.0,23.459116
348.0,23.362332
350.0,23.362332
352.0,23.168764
354.0,23.459116
356.0,23.362332
358.016667,23.362332
360.0,23.362332
362.0,23.265548
364.0,23.362332
366.0,23.168764
368.0,23.168764
370.0,23.168764
372.0,23.265548
374.0,23.168764
376.0,22.975196
378.0,23.265548
380.0,23.07198
382.0,22.975196
384.0,23.168764
386.0,23.168764
388.0,23.168764
390.0,23.07198
392.0,23.07198
394.0,23.168764
396.0,23.07198
398.0,23.168764
400.0,23.07198
402.0,23.07198
404.0,22.975196
406.0,23.07198
408.0,22.975196
410.0,22.975196
412.0,22.975196
414.0,22.878412
416.0,22.975196
418.0,22.878412
420.0,22.878412
422.0,22.878412
424.0,22.975196
426.0,22.878412
428.0,22.781629
430.0,22.684845
432.0,22.781629
434.0,22.878412
436.0,22.781629
438.0,22.684845
440.0,22.684845
442.0,22.588061
444.0,22.684845
446.0,22.684845
448.0,22.684845
450.0,22.491277
452.0,22.684845
454.0,22.684845
456.0,22.684845
458.0,22.588061
460.0,22.684845
462.0,22.588061
464.0,22.588061
466.0,22.588061
468.0,22.588061
470.0,22.491277
472.0,22.297709
474.0,22.491277
476.0,22.491277
478.0,22.491277
480.0,22.588061
482.0,22.297709
484.0,22.394493
486.0,22.394493
488.0,22.394493
490.0,22.200925
492.0,22.394493
494.0,22.491277
496.0,22.394493
498.0,22.491277
500.0,22.394493
502.0,22.491277
504.0,22.394493
506.0,22.394493
508.0,22.394493
510.0,22.394493
512.0,22.394493
514.0,22.297709
516.0,22.200925
518.0,22.297709
520.0,22.297709
522.0,22.297709
524.0,22.297709
526.0,22.104141
528.016667,22.394493
530.0,22.297709
532.0,22.297709
534.0,22.297709
536.0,22.200925
538.0,22.200925
540.0,22.297709
542.0,22.200925
544.0,22.200925
546.0,22.297709
548.0,22.200925
550.0,22.200925
552.0,22.297709
554.0,22.297709
556.0,22.200925
558.0,22.297709
560.0,22.200925
562.0,22.104141
564.0,22.104141
566.0,22.104141
568.0,22.200925
570.0,22.200925
572.0,22.200925
576.0,22.200925
584.0,21.81379
586.0,22.394493
590.0,22.297709
596.0,22.200925
598.0,22.394493
600.0,22.297709
602.0,22.297709
604.0,22.394493
606.0,22.394493
608.0,21.81379
610.0,22.104141
612.0,22.200925
614.0,22.200925
616.0,22.297709
618.0,22.297709
620.0,22.200925
622.0,22.394493
624.0,22.007358
626.0,22.104141
628.0,21.81379
630.0,22.104141
632.0,22.104141
634.0,22.200925
636.0,22.200925
638.0,22.104141
640.0,22.200925
642.0,22.104141
644.0,22.104141
646.0,22.200925
648.0,22.104141
652.0,22.491277
654.0,22.491277
656.0,22.394493
658.0,22.394493
660.0,22.394493
662.0,22.394493
664.0,22.297709
666.0,22.297709
668.0,22.297709
670.0,22.297709
672.0,22.200925
674.0,22.297709
676.0,22.200925
678.0,22.200925
680.0,22.297709
682.0,22.297709
684.0,22.297709
686.0,22.297709
688.0,22.297709
690.0,22.200925
692.0,22.297709
694.0,22.297709
696.0,22.297709
698.0,22.200925
700.0,22.297709
702.0,22.297709
704.0,22.200925
706.0,22.200925
708.0,22.297709
710.0,22.297709
712.0,22.394493
714.0,22.297709
716.0,22.297709
718.0,22.200925
720.0,22.200925
722.0,22.297709
724.0,22.297709
726.0,22.297709
728.0,22.200925
730.0,22.200925
732.0,22.297709
734.0,22.200925
736.0,22.200925
738.0,22.200925
740.0,22.200925
742.0,22.200925
744.0,22.104141
746.0,22.200925
748.0,22.104141
750.0,22.104141
752.0,22.200925
754.0,22.200925
756.0,22.200925
758.0,22.200925
760.0,22.297709
762.0,22.200925
764.0,22.104141
766.0,22.297709
768.0,22.200925
770.0,22.200925
772.0,22.297709
774.0,22.200925
776.0,22.297709
778.0,22.297709
780.0,22.200925
782.0,22.297709
784.0,22.200925
786.0,22.200925
788.0,22.297709
790.0,22.297709
792.0,22.297709
794.0,22.297709
796.0,22.200925
798.0,22.200925
800.0,22.007358
802.0,22.200925
804.0,22.200925
806.0,22.104141
808.0,22.200925
810.0,22.297709
812.0,22.200925
814.0,22.200925
816.0,22.200925
818.0,22.200925
820.0,22.200925
822.0,22.200925
824.0,22.200925
826.0,22.200925
828.0,22.200925
830.0,22.297709
832.0,22.297709
834.0,22.297709
836.0,22.297709
838.0,22.297709
840.0,22.297709
842.0,22.297709
844.0,22.200925
846.0,22.297709
848.0,22.297709
850.0,22.394493
852.0,22.297709
854.0,22.297709
856.0,22.394493
858.0,22.297709
860.0,22.297709
862.0,22.297709
864.0,22.394493
866.0,22.297709
868.0,22.394493
870.0,22.297709
872.0,22.297709
874.0,22.297709
876.0,22.394493
878.0,22.297709
880.0,22.297709
882.0,22.297709
884.0,22.297709
886.0,22.200925
888.0,22.297709
890.0,22.297709
892.0,22.394493
894.0,22.200925
896.0,22.200925
898.0,22.297709
900.0,22.200925
902.0,22.297709
904.0,22.297709
906.0,22.200925
908.0,22.297709
910.0,22.297709
912.0,22.200925
914.0,22.104141
916.0,22.104141
918.0,22.200925
920.0,22.200925
922.0,22.200925
924.0,22.200925
926.0,22.200925
928.0,22.297709
930.0,22.200925
932.0,22.297709
934.0,22.297709
936.0,22.200925
938.0,22.200925
940.0,22.200925
942.0,22.200925
944.0,22.200925
946.0,22.200925
948.0,22.297709
950.0,22.104141
952.0,22.200925
964.0,22.684845
968.0,22.684845
968.083333,22.684845
970.0,22.684845
972.0,22.588061
974.0,22.491277
976.0,22.588061
978.0,22.491277
980.0,22.491277
982.0,22.394493
984.0,22.491277
986.0,22.394493
988.0,22.491277
990.0,22.394493
992.0,22.394493
994.0,22.394493
996.0,22.200925
998.0,22.394493
1000.0,22.491277
1002.0,22.394493
1004.0,22.394493
1006.0,22.394493
1008.0,22.394493
1010.0,22.394493
1012.0,22.588061
1014.0,22.491277
1016.0,22.588061
1018.0,22.491277
1020.0,22.491277
1022.0,22.491277
1024.0,22.491277
1026.0,22.491277
1028.0,22.491277
1030.0,22.491277
1032.0,22.297709
1034.0,22.491277
1036.0,22.491277
1038.0,22.394493
1040.0,22.394493
1042.0,22.394493
1044.0,22.394493
1046.0,22.297709
1048.0,22.394493
1050.0,22.297709
1052.0,22.297709
1054.0,22.297709
1056.0,22.200925
1058.0,22.491277
1060.0,22.297709
1062.016667,22.297709
1064.0,22.297709
1066.0,22.007358
1068.0,22.297709
1070.0,22.200925
1072.0,22.297709
1074.0,22.297709
1076.0,22.297709
1078.0,22.297709
1080.0,22.297709
1082.0,22.297709
1084.0,22.200925
1086.0,22.297709
1088.0,22.297709
1090.0,22.200925
1092.0,22.200925
1094.0,22.200925
1096.0,22.200925
1098.0,22.200925
1100.0,22.104141
1102.0,22.104141
1104.0,22.104141
1106.0,22.104141
1108.0,22.104141
1110.0,22.200925
1112.0,22.200925
1114.0,22.104141
1116.0,22.104141
1118.0,22.200925
1120.0,22.200925
1122.0,22.104141
1124.0,22.104141
1126.0,22.104141
1128.0,22.200925
1130.0,22.104141
1132.0,22.200925
1134.0,22.104141
1136.0,22.104141
1138.0,22.104141
1140.0,22.104141
1142.0,22.200925
1144.0,22.007358
1146.0,22.104141
1148.0,22.104141
1150.0,22.104141
1152.0,22.104141
1154.0,22.104141
1156.0,22.007358
1158.0,22.104141
1160.0,22.104141
1162.0,22.104141
1164.0,22.104141
1166.0,22.104141
1168.0,22.104141
1170.0,22.104141
1172.0,22.200925
1177.983333,22.200925
1179.983333,22.104141
1181.983333,22.200925
1183.966667,22.200925
1185.983333,22.200925
1187.983333,22.200925
1189.983333,22.200925
1191.983333,22.104141
1193.983333,22.200925
1195.983333,22.200925
1201.983333,22.491277
1203.983333,22.394493
1205.983333,22.394493
1207.966667,22.297709
1209.983333,22.297709
1211.983333,22.200925
1213.983333,22.297709
1215.983333,22.200925
1217.983333,22.104141
1219.983333,22.104141
1221.983333,22.104141
1223.983333,22.104141
1225.983333,22.007358
1227.983333,22.104141
1229.983333,22.104141
1231.983333,22.200925
1233.983333,22.007358
1235.983333,22.104141
1237.983333,22.104141
1239.983333,22.200925
1241.983333,22.200925
1243.983333,21.910574
1245.983333,22.200925
1247.983333,22.200925
1249.983333,22.200925
1251.983333,22.200925
1253.983333,22.200925
1255.983333,22.200925
1257.983333,22.200925
1259.983333,22.200925
1261.983333,22.200925
1263.983333,22.200925
1265.983333,22.200925
1267.983333,22.104141
1269.983333,22.104141
1271.983333,22.104141
1273.983333,22.104141
1275.983333,22.104141
1277.983333,22.007358
1279.983333,22.007358
1281.983333,22.104141
1283.983333,22.104141
1285.983333,22.007358
1287.983333,22.104141
1289.983333,22.104141
1291.983333,22.104141
1293.983333,22.007358
1295.983333,22.104141
1297.983333,22.007358
1299.983333,22.104141
1301.983333,22.007358
1303.983333,22.007358
1305.983333,22.104141
1307.983333,22.104141
1309.983333,22.104141
1311.983333,21.910574
1313.983333,22.104141
1315.983333,22.007358
1317.983333,22.200925
1319.983333,22.104141
1321.983333,22.104141
1323.983333,22.104141
1325.983333,22.104141
1327.983333,22.104141
1329.966667,22.007358
1331.983333,22.104141
1333.983333,22.104141
1335.983333,22.104141
1337.983333,22.104141
1339.983333,22.007358
1341.983333,22.104141
1343.983333,22.104141
1345.983333,22.104141
1347.983333,22.007358
1349.983333,22.007358
1351.983333,22.200925
1353.983333,22.007358
1355.983333,22.007358
1357.983333,22.007358
1359.983333,22.007358
1361.983333,22.104141
1363.983333,22.007358
1365.983333,22.007358
1367.983333,22.007358
1369.983333,22.104141
1371.983333,22.104141
1373.983333,22.104141
1375.983333,22.104141
1377.983333,22.104141
1379.983333,22.104141
1381.983333,22.104141
1383.983333,22.104141
1385.983333,22.007358
1387.983333,22.007358
1389.983333,22.104141
1391.966667,22.007358
1393.983333,22.104141
1395.983333,22.104141
1397.983333,22.104141
1399.983333,22.104141
1401.983333,22.104141
1403.983333,22.104141
1405.983333,22.007358
1407.983333,22.104141
1409.983333,22.104141
1411.966667,22.007358
1413.983333,22.007358
1415.983333,22.007358
1417.983333,22.007358
1419.983333,22.007358
1421.983333,22.007358
1423.983333,22.007358
1425.983333,22.007358
1427.983333,22.007358
1429.983333,22.007358
1431.983333,22.104141
1433.983333,22.007358
1435.983333,22.007358
1437.983333,22.007358
1439.983333,22.007358
1441.983333,22.007358
1443.983333,22.104141
1445.983333,22.104141
1447.983333,22.104141
1449.983333,21.910574
1451.983333,22.104141
1453.983333,22.200925
1455.983333,22.104141
1457.983333,22.104141
1459.983333,22.200925
1461.983333,22.104141
1463.983333,22.104141
1465.983333,22.104141
1467.966667,22.200925
1469.983333,22.200925
1473.983333,22.007358
1475.983333,22.104141
1477.983333,22.104141
1479.983333,22.104141
1481.983333,22.104141
1483.983333,22.104141
1485.983333,22.104141
1487.983333,22.007358
1489.983333,22.104141
1491.983333,22.104141
1493.983333,22.104141
1495.983333,22.104141
1497.983333,22.104141
1499.983333,22.104141
1501.983333,22.104141
1503.983333,22.104141
1505.983333,22.007358
1507.983333,22.104141
1509.983333,22.200925
1511.983333,22.104141
1513.983333,22.104141
1515.983333,22.104141
1517.983333,22.104141
1519.983333,22.104141
1521.983333,22.104141
1523.983333,22.104141
1525.983333,22.104141
1527.983333,22.104141
1529.983333,22.104141
1531.983333,22.104141
1533.983333,22.104141
1535.983333,22.104141
1537.983333,22.104141
1539.983333,22.104141
1541.983333,22.104141
1543.983333,22.104141
1545.983333,22.104141
1547.983333,22.007358
1549.983333,22.104141
1551.983333,22.104141
1553.983333,22.104141
1555.983333,22.007358
1557.983333,22.104141
1559.983333,22.104141
1561.983333,22.104141
1563.983333,22.104141
1565.983333,22.007358
1567.983333,22.104141
1569.966667,22.104141
1571.983333,22.104141
1573.983333,22.104141
1575.983333,22.007358
1577.983333,22.104141
1579.983333,22.007358
1581.983333,22.007358
1583.966667,22.104141
1585.983333,22.007358
1587.983333,22.007358
1589.966667,22.007358
1591.983333,22.104141
1593.983333,22.007358
1595.983333,22.007358
1597.983333,22.104141
1599.983333,22.104141
1601.983333,22.007358
1603.983333,22.007358
1605.966667,22.104141
1607.983333,22.007358
1609.983333,22.007358
1611.983333,22.007358
1613.983333,22.007358
1615.983333,22.007358
1617.983333,22.007358
1619.983333,21.910574
1621.983333,21.910574
1623.983333,22.007358
1625.983333,22.007358
1627.983333,21.910574
1629.983333,21.910574
1631.983333,21.910574
1633.983333,22.007358
1635.983333,22.007358
1637.983333,21.910574
1639.983333,21.910574
1641.983333,21.910574
1643.983333,22.007358
1645.983333,21.910574
1647.983333,21.910574
1649.983333,21.910574
1651.983333,22.007358
1653.983333,22.007358
1655.983333,22.007358
1657.983333,21.717006
1659.983333,21.81379
1661.983333,21.81379
1663.983333,21.81379
1665.983333,21.81379
1667.983333,21.717006
1669.983333,21.81379
1671.983333,21.81379
1673.983333,21.717006
1675.983333,21.81379
1677.966667,21.81379
1679.983333,21.717006
1681.983333,21.717006
1683.983333,21.717006
1685.983333,21.717006
1687.966667,21.81379
1689.983333,21.81379
1691.983333,21.717006
1693.983333,21.81379
1695.983333,21.81379
1697.983333,21.81379
1699.983333,21.717006
1701.983333,21.81379
1703.983333,21.717006
1705.983333,21.717006
1707.983333,21.717006
1709.983333,21.717006
1711.983333,21.81379
1713.983333,21.717006
1715.983333,21.717006
1717.983333,21.717006
1719.983333,21.81379
1721.983333,21.717006
1723.983333,21.81379
1725.983333,21.717006
1727.983333,21.717006
1729.983333,21.81379
1731.983333,21.717006
1733.983333,21.620222
1735.983333,21.620222
1737.983333,21.717006
1739.983333,21.620222
1741.983333,21.717006
1743.983333,21.81379
1745.983333,21.81379
1747.983333,21.81379
1749.983333,21.717006
1751.983333,21.620222
1753.983333,21.717006
1755.983333,21.81379
1757.983333,21.717006
1759.983333,21.717006
1761.983333,21.717006
1763.983333,21.81379
1765.983333,21.717006
1767.983333,21.81379
1769.983333,21.717006
1771.983333,21.717006
1773.983333,21.717006
1775.983333,21.620222
1781.983333,21.426654
1783.983333,21.620222
1785.983333,21.717006
1787.983333,21.717006
1789.983333,21.426654
1791.983333,21.426654
1795.983333,21.426654
1797.983333,21.523438
1799.983333,21.620222
1801.983333,21.620222
1803.983333,21.620222
1805.983333,21.717006
1807.983333,21.620222
1809.983333,21.620222
1811.983333,21.620222
1813.983333,21.717006
1815.983333,21.620222
1817.983333,21.717006
1819.983333,21.620222
1821.983333,21.620222
1823.983333,21.620222
1825.983333,21.620222
1827.983333,21.620222
1829.983333,21.620222
1831.983333,21.523438
1833.983333,21.620222
1835.983333,21.620222
1837.983333,21.620222
1839.983333,21.717006
1845.983333,24.81409
1849.966667,27.233687
1863.983333,28.395093
1865.983333,28.879012
1867.983333,30.524338
1869.983333,29.5565
1871.983333,29.362932
1897.983333,30.330771
1899.966667,30.911474
1901.983333,31.008258
1903.983333,31.201825
1905.983333,29.653283
1907.983333,28.879012
1909.983333,28.782229
1911.983333,28.975796
1913.983333,28.879012
1915.983333,28.782229
1917.983333,28.588661
1921.983333,27.330471
1929.983333,25.201225
1931.983333,25.007658
1933.966667,24.81409
1935.983333,24.620522
1937.983333,24.426954
1939.983333,24.233387
1941.983333,24.136603
1943.983333,24.039819
1945.983333,23.846251
1947.983333,23.749467
1949.983333,23.652683
1951.983333,23.5559
1953.983333,23.459116
1955.983333,23.362332
1957.983333,23.168764
1959.983333,23.168764
1961.983333,23.265548
1963.983333,23.168764
1965.983333,23.07198
1967.983333,22.975196
1969.983333,22.975196
1971.983333,22.975196
1973.966667,22.878412
1975.983333,22.781629
1977.983333,22.878412
1979.983333,22.781629
1981.983333,22.588061
1983.983333,22.781629
1985.983333,22.781629
1987.983333,22.781629
1989.983333,22.684845
1991.983333,22.684845
1993.983333,22.684845
1995.983333,22.588061
1997.983333,22.781629
1999.983333,22.588061
2001.983333,22.684845
2003.983333,22.684845
2005.983333,22.588061
2007.966667,22.588061
2009.966667,22.684845
2011.983333,22.588061
2013.983333,22.588061
2015.966667,22.588061
2017.966667,22.491277
2019.983333,22.588061
2021.983333,22.491277
2023.983333,22.684845
2025.983333,22.394493
2027.983333,22.588061
2029.983333,22.394493
2031.966667,22.394493
2033.983333,22.491277
2035.983333,22.297709
2037.983333,22.491277
2039.983333,22.297709
2041.983333,22.394493
2043.983333,22.394493
2045.983333,22.297709
2047.983333,22.297709
2049.983333,22.297709
2051.983333,22.297709
2053.983333,22.104141
2055.983333,22.104141
2057.983333,22.200925
2059.983333,22.200925
2061.983333,22.200925
2063.983333,22.104141
2065.983333,22.104141
2067.983333,22.200925
2069.966667,22.200925
2071.983333,22.104141
2073.983333,22.200925
2075.983333,22.200925
2077.983333,22.104141
2079.983333,22.104141
2081.983333,21.910574
2083.983333,22.007358
2085.983333,22.007358
2087.983333,22.007358
2089.983333,22.104141
2091.983333,22.104141
2093.983333,22.007358
2095.983333,22.104141
2097.983333,22.104141
2099.983333,22.007358
2101.983333,22.007358
2103.983333,22.104141
2105.983333,22.104141
2107.983333,22.104141
2109.983333,22.007358
2111.983333,22.007358
2113.983333,22.104141
2115.983333,22.104141
2117.983333,22.104141
2119.983333,22.007358
2121.983333,22.104141
2123.983333,22.007358
2125.983333,22.200925
2127.983333,22.007358
2129.983333,22.007358
2131.983333,22.104141
2133.983333,22.007358
2135.983333,21.910574
2137.983333,21.910574
2139.983333,21.910574
2141.983333,22.007358
2143.983333,21.910574
2145.983333,21.910574
2147.983333,22.007358
2149.983333,21.910574
2151.983333,21.910574
2153.983333,21.910574
2155.983333,21.81379
2157.983333,21.910574
2159.983333,21.81379
2161.983333,21.910574
2163.983333,21.81379
2165.966667,21.81379
2167.983333,21.81379
2169.983333,21.81379
2171.983333,21.81379
2173.983333,21.81379
2175.983333,21.717006
2177.983333,21.81379
2179.966667,21.81379
2181.983333,21.81379
2183.983333,21.81379
2185.966667,21.81379
2187.966667,21.81379
2189.983333,21.910574
2191.983333,21.81379
2193.983333,22.007358
2195.983333,21.81379
2197.983333,21.81379
2199.983333,21.910574
2201.983333,21.81379
2203.983333,21.910574
2205.983333,21.910574
2207.983333,21.910574
2209.983333,21.81379
2211.983333,21.910574
2213.983333,21.910574
2215.983333,21.910574
2217.983333,21.81379
2219.983333,21.910574
2221.983333,21.81379
2223.983333,21.81379
2225.983333,21.910574
2227.983333,21.81379
2229.983333,21.81379
2231.983333,21.81379
2233.966667,21.910574
2235.983333,21.717006
2237.983333,21.717006
2239.983333,21.81379
2241.966667,21.717006
2243.983333,21.717006
2245.983333,21.81379
2247.983333,21.910574
2249.983333,21.81379
2251.983333,21.81379
2253.983333,21.81379
2255.983333,21.717006
2257.983333,21.81379
2259.983333,21.717006
2261.983333,21.81379
2263.983333,21.81379
2265.983333,21.81379
2267.983333,21.717006
2269.983333,21.620222
2271.983333,21.620222
2273.983333,21.717006
2275.983333,21.717006
2277.983333,21.717006
2279.983333,21.620222
2281.983333,21.717006
2283.983333,21.620222
2285.983333,21.620222
2287.983333,21.717006
2289.983333,21.81379
2291.983333,21.717006
2293.983333,21.717006
2295.983333,21.717006
2297.983333,21.717006
2299.983333,21.717006
2301.983333,21.717006
2303.983333,21.717006
2305.983333,21.620222
