time,pressure
0.0,249.733637
0.25,249.753362
0.499722,249.733637
0.749722,249.743499
0.968333,249.733637
0.969722,249.733637
1.053056,247.179307
1.136389,245.374511
1.219722,243.914894
1.302778,242.701834
1.386111,241.390151
1.469444,240.463097
1.552778,239.634666
1.636111,238.816097
1.719444,238.106013
1.802778,237.208546
1.886111,236.567498
1.969444,235.936312
2.052778,235.305126
2.136111,234.733114
2.219444,234.052617
2.3025,233.490468
2.385833,233.026941
2.469167,232.50424
2.5525,232.060437
2.635833,231.50815
2.719167,231.054485
2.8025,230.64027
2.885833,230.196467
2.969167,229.821701
3.0525,229.308862
3.135833,228.943958
3.218889,228.579054
3.302222,228.204287
3.385556,227.839383
3.468889,227.375856
3.552222,227.030676
3.635556,226.695359
3.718889,226.350179
3.802222,226.044449
3.885556,225.630233
3.968889,225.294916
4.052222,224.969461
4.135556,224.673592
4.218611,224.367862
4.301944,223.983233
4.385278,223.736676
4.468611,223.440808
4.551944,223.164664
4.635278,222.849071
4.718611,222.513754
4.801944,222.247472
4.885278,222.02064
4.968611,221.724772
5.051944,221.45849
5.135,221.211933
5.218333,220.985101
5.301667,220.728682
5.385,220.501849
5.468333,220.196119
5.551667,219.998873
5.635,219.801628
5.718333,219.574795
5.801667,219.347963
5.885,219.091544
5.968333,218.914023
6.051389,218.697053
6.134722,218.480083
6.218056,218.322286
6.301389,218.065867
6.384722,217.878484
6.468056,217.691101
6.551389,217.51358
6.634722,217.326196
6.718056,217.119088
6.801389,216.95143
6.884722,216.764047
6.968056,216.596388
7.051111,216.409005
7.134444,216.221621
7.217778,216.034238
7.301111,215.856717
7.384444,215.718645
7.467778,215.541124
7.551111,215.324154
7.634444,215.156495
7.717778,214.988837
7.801111,214.840903
7.884444,214.663382
7.9675,214.485861
8.050833,214.328064
8.134167,214.150543
8.2175,214.002609
8.300833,213.815226
8.384167,213.657429
8.4675,213.509495
8.550833,213.351699
8.634167,213.174178
8.7175,212.986795
8.800833,212.828998
8.884167,212.700789
8.967222,212.542992
9.050556,212.385196
9.133889,212.207675
9.217222,212.089327
9.300556,211.951256
9.383889,211.783597
9.467222,211.66525
9.550556,211.468004
9.633889,211.32007
9.717222,211.19186
9.800556,211.053788
9.883611,210.935441
9.966944,210.75792
10.050278,210.629711
10.133611,210.481776
10.216944,210.343704
10.300278,210.176046
10.383611,210.018249
10.466944,209.880177
10.550278,209.742106
10.633611,209.643483
10.716944,209.485686
10.800278,209.367339
10.883333,209.229267
10.966667,209.091195
11.05,208.972848
11.133333,208.824914
11.216667,208.686842
11.3,208.558632
11.383333,208.450147
11.466667,208.3318
11.55,208.183866
11.633333,208.045794
11.716667,207.927447
11.799722,207.789375
11.883056,207.700614
11.966389,207.562542
12.049722,207.414608
12.133056,207.296261
12.216389,207.217363
12.299722,207.089153
12.383056,206.911632
12.466389,206.822872
12.549722,206.704524
12.633056,206.586177
12.716389,206.418518
12.799444,206.319896
12.882778,206.211411
12.966111,206.112788
13.049444,205.994441
13.132778,205.856369
13.216111,205.77747
13.299444,205.649261
13.382778,205.530914
13.466111,205.452015
13.549444,205.313943
13.632778,205.185734
13.715833,205.087111
13.799167,205.008213
13.8825,204.90959
13.965833,204.781381
14.049167,204.663033
14.1325,204.574273
14.215833,204.495374
14.299167,204.406614
14.3825,204.268542
14.465833,204.160057
14.549167,204.081159
14.6325,203.962812
14.715556,203.854327
14.798889,203.755704
14.882222,203.647219
14.965556,203.538734
15.048889,203.489422
15.132222,203.302039
15.215556,203.242865
15.298889,203.114656
15.382222,203.055482
15.465556,202.937135
15.548889,202.82865
15.631944,202.710302
15.715278,202.631404
15.798611,202.542644
15.881944,202.453883
15.965278,202.35526
16.048611,202.2665
16.131944,202.158015
16.215278,202.088979
16.298611,201.980494
16.381944,201.862147
16.465278,201.793111
16.548611,201.724075
16.631667,201.605727
16.715,201.497242
16.798333,201.438069
16.881667,201.319721
16.965,201.250686
17.048333,201.132338
17.131667,201.05344
17.215,200.935093
17.298333,200.885781
17.381667,200.767434
17.465,200.70826
17.548056,200.550464
17.631389,200.481428
17.714722,200.372943
17.798056,200.303907
17.881389,200.215146
17.964722,200.096799
18.048056,200.047488
18.131389,199.958727
18.214722,199.869967
18.298056,199.761482
18.381389,199.682584
18.464722,199.564236
18.547778,199.426164
18.631111,199.396578
18.714444,199.307817
18.797778,199.228919
18.881111,199.18947
18.964444,199.090847
19.047778,199.031673
19.131111,198.942913
19.214444,198.893601
19.297778,198.814703
19.381111,198.745667
19.464167,198.676631
19.5475,198.597733
19.630833,198.528697
19.714167,198.449799
19.7975,198.380763
19.880833,198.311727
19.964167,198.19338
20.0475,198.114482
20.130833,198.084895
20.214167,198.005997
20.2975,197.907374
20.380833,197.838338
20.463889,197.789026
20.547222,197.71999
20.630556,197.670679
20.713889,197.552332
20.797222,197.493158
20.880556,197.41426
20.963889,197.345224
21.047222,197.28605
21.130556,197.19729
21.213889,197.128254
21.297222,197.078943
21.380278,196.990182
21.463611,196.911284
21.546944,196.822523
21.630278,196.743625
21.713611,196.694314
21.796944,196.63514
21.880278,196.575966
21.963611,196.457619
22.046944,196.349134
22.130278,196.309685
22.213611,196.230787
22.296944,196.132164
22.38,196.023679
22.463333,195.925056
22.546667,195.875745
22.63,195.796847
22.713333,195.688362
22.796667,195.648912
22.88,195.530565
22.963333,195.461529
23.046667,195.392493
23.13,195.29387
23.213333,195.20511
23.296389,195.136074
23.379722,195.086763
23.463056,194.98814
23.546389,194.909242
23.629722,194.810619
23.713056,194.741583
23.796389,194.692272
23.879722,194.603511
23.963056,194.524613
24.046389,194.465439
24.129722,194.396403
24.212778,194.327367
24.296111,194.258331
24.379444,194.149846
24.462778,194.100535
24.546111,194.011775
24.629444,193.962463
24.712778,193.932876
24.796111,193.824391
24.879444,193.784942
24.962778,193.696182
25.046111,193.64687
25.129444,193.567972
25.2125,193.498936
25.295833,193.459487
25.379167,193.380589
25.4625,193.301691
25.545833,193.252379
25.629167,193.173481
25.7125,193.104445
25.795833,193.064996
25.879167,192.976235
25.9625,192.897337
26.045833,192.828301
26.128889,192.759265
26.212222,192.700092
26.295556,192.631056
26.378889,192.532433
26.462222,192.492984
26.545556,192.43381
26.628889,192.34505
26.712222,192.305601
26.795556,192.206978
26.878889,192.167529
26.962222,192.078768
27.045278,192.029457
27.128611,191.950559
27.211944,191.881523
27.295278,191.822349
27.378611,191.773038
27.461944,191.69414
27.545278,191.605379
27.628611,191.56593
27.711944,191.467307
27.795278,191.43772
27.878611,191.388409
27.961944,191.289786
28.045,191.240475
28.128333,191.161577
28.211667,191.122127
28.295,191.023505
28.378333,190.954469
28.461667,190.924882
28.545,190.865708
28.628333,190.806535
28.711667,190.747361
28.795,190.668463
28.878333,190.609289
28.961389,190.559978
29.044722,190.490942
29.128056,190.412044
29.211389,190.372594
29.294722,190.303559
29.378056,190.244385
29.461389,190.204936
29.544722,190.155624
29.628056,190.116175
29.711389,190.017553
29.794722,189.978103
29.878056,189.938654
29.961111,189.840032
30.044444,189.79072
30.127778,189.731546
30.211111,189.682235
30.294444,189.623061
30.377778,189.544163
30.461111,189.48499
30.544444,189.475127
30.627778,189.386367
30.711111,189.327193
30.794444,189.258157
30.8775,189.218708
30.960833,189.159534
31.044167,189.090499
31.1275,189.051049
31.210833,188.952427
31.294167,188.92284
31.3775,188.834079
31.460833,188.804492
31.544167,188.735457
31.6275,188.646696
31.710833,188.617109
31.794167,188.597385
31.877222,188.538211
31.960556,188.469175
32.043889,188.410001
32.127222,188.36069
32.210556,188.281792
32.293889,188.252205
32.377222,188.14372
32.460556,188.123995
32.543889,187.749229
32.627222,187.384325
32.710556,187.433636
32.793611,187.423774
32.876944,187.404049
32.960278,187.394187
33.043611,187.354738
33.126944,187.315289
33.210278,187.27584
33.293611,187.256115
33.376944,187.236391
33.460278,187.177217
33.543611,187.137768
33.626944,187.098319
33.710278,187.068732
33.793333,187.029283
33.876667,186.999696
33.96,186.910935
34.043333,186.901073
34.126667,186.851762
34.21,186.27975
34.293333,185.747187
34.376667,185.332971
34.46,185.027241
34.543333,184.869444
34.626667,184.889169
34.709722,185.106139
34.793056,185.254073
34.876389,185.362558
34.959722,185.37242
35.043056,185.392145
35.126389,185.471043
35.209722,185.471043
35.293056,185.510492
35.376389,185.530217
35.459722,185.510492
35.543056,185.50063
35.626389,185.50063
35.709444,185.441456
35.792778,185.441456
35.876111,185.392145
35.959444,185.362558
36.042778,185.37242
36.126111,185.323109
36.209444,185.313247
36.292778,185.28366
36.376111,185.254073
36.459444,185.214624
36.542778,185.175175
36.625833,185.125863
36.709167,185.056827
36.7925,185.017378
36.875833,184.997654
36.959167,184.918756
37.0425,184.84972
37.125833,184.829995
37.209167,184.790546
37.2925,184.770821
37.375833,184.770821
37.459167,184.760959
37.5425,184.682061
37.625556,184.642612
37.708889,184.613025
37.792222,184.553851
37.875556,184.415779
37.958889,184.366468
38.042222,184.277708
38.125556,184.238258
38.208889,184.208672
38.292222,184.139636
38.375556,184.110049
38.458889,184.050875
38.541944,184.011426
38.625278,183.952252
38.708611,183.902941
38.791944,183.863492
38.875278,183.804318
38.958611,183.784594
39.041944,183.715558
39.125278,183.646522
39.208611,183.626797
39.291944,183.59721
39.375278,183.577486
39.458611,183.538037
39.541667,183.498588
39.625,183.429552
39.708333,183.399965
39.791667,183.330929
39.875,183.301342
39.958333,183.261893
40.041667,183.212582
40.125,183.153408
40.208333,183.094234
40.291667,183.054785
40.375,182.956163
40.458056,182.926576
40.541389,182.906851
40.624722,182.867402
40.708056,182.818091
40.791389,182.768779
40.874722,182.72933
40.958056,182.650432
41.041389,182.561671
41.124722,182.541947
41.208056,182.492636
41.291389,182.413737
41.374722,182.38415
41.457778,182.354564
41.541111,182.334839
41.624444,182.305252
41.707778,182.236216
41.791111,182.147456
41.874444,182.108007
41.957778,182.058695
42.041111,182.029109
42.124444,181.979797
42.207778,181.910761
42.291111,181.86145
42.374444,181.851588
42.4575,181.802276
42.540833,181.73324
42.624167,181.64448
42.7075,181.565582
42.790833,181.506408
42.874167,181.417647
42.9575,181.348611
43.040833,181.279575
43.124167,181.220402
43.2075,181.17109
43.290833,181.131641
43.373889,181.08233
43.457222,181.033019
43.540556,181.033019
43.623889,180.973845
43.707222,180.904809
43.790556,180.885084
43.873889,180.875222
43.957222,180.835773
44.040556,180.806186
44.123889,180.766737
44.207222,180.727288
44.290556,180.64839
44.373611,180.599078
44.456944,180.589216
44.540278,180.559629
44.623611,180.589216
44.706944,180.579354
44.790278,180.549767
44.873611,180.510318
44.956944,180.411695
45.040278,180.362384
45.123611,180.293348
45.206944,180.234174
45.29,180.175001
45.373333,180.145414
45.456667,180.105965
45.54,180.076378
45.623333,179.99748
45.706667,179.987617
45.79,179.928444
45.873333,179.948168
45.956667,180.036929
46.04,180.096102
46.123333,180.096102
46.206667,180.165138
46.289722,180.21445
46.373056,180.263761
46.456389,180.263761
46.539722,180.253899
46.623056,180.21445
46.706389,180.155276
46.789722,180.096102
46.873056,180.027066
46.956389,179.918581
47.039722,179.800234
47.123056,179.691749
47.206111,179.612851
47.289444,179.445192
47.372778,179.376156
47.456111,179.267671
47.539444,179.178911
47.622778,179.109875
47.706111,179.060563
47.789444,179.011252
47.872778,178.922491
47.956111,178.912629
48.039444,178.794282
48.122778,178.764695
48.205833,178.65621
48.289167,178.577312
48.3725,178.547725
48.455833,178.508276
48.539167,178.458964
48.6225,178.399791
48.705833,178.399791
48.789167,178.380066
48.8725,178.380066
48.955833,178.409653
49.039167,178.360342
49.122222,178.370204
49.205556,178.320893
49.288889,178.320893
49.372222,178.301168
49.455556,178.301168
49.538889,178.281443
49.622222,178.251857
49.705556,178.182821
49.788889,178.22227
49.872222,178.202545
49.955556,178.192683
50.038889,178.182821
50.121944,178.113785
50.205278,178.044749
50.288611,177.965851
50.371944,177.926401
50.455278,177.857366
50.538611,177.827779
50.621944,177.78833
50.705278,177.699569
50.788611,177.650258
50.871944,177.600946
50.955278,177.522048
51.038333,177.53191
51.121667,177.541773
51.205,177.502324
51.288333,177.472737
51.371667,177.433288
51.455,177.403701
51.538333,177.354389
51.621667,177.334665
51.705,177.285353
51.788333,177.285353
51.871667,177.255767
51.954722,177.255767
52.038056,177.255767
52.121389,177.265629
52.204722,177.206455
52.288056,177.176868
52.371389,177.147282
52.454722,177.088108
52.538056,176.999347
52.621389,176.989485
52.704722,176.910587
52.788056,176.881
52.871389,176.851413
52.954444,176.782377
53.037778,176.742928
53.121111,176.703479
53.204444,176.703479
53.287778,176.66403
53.371111,176.624581
53.454444,176.53582
53.537778,176.516096
53.621111,176.476647
53.704444,176.407611
53.787778,176.397749
53.870833,176.338575
53.954167,176.289264
54.0375,176.269539
54.120833,176.23009
54.204167,176.180779
54.2875,176.131467
54.370833,176.082156
54.454167,176.032844
54.5375,175.963808
54.620833,175.924359
54.704167,175.825737
54.7875,175.776425
54.870556,175.697527
54.953889,175.608766
55.037222,175.569317
55.120556,175.549593
55.203889,175.520006
55.287222,175.480557
55.370556,175.441108
55.453889,175.372072
55.537222,175.293174
55.620556,175.273449
55.703889,175.145239
55.786944,175.10579
55.870278,175.095928
55.953611,175.036754
56.036944,174.997305
56.120278,175.007168
56.203611,174.997305
56.286944,174.977581
56.370278,174.947994
56.453611,174.928269
56.536944,174.898683
56.620278,174.88882
56.703333,174.829647
56.786667,174.809922
56.87,174.790198
56.953333,174.740886
57.036667,174.711299
57.12,174.711299
57.203333,174.67185
57.286667,174.67185
57.37,174.632401
57.453333,174.563365
57.536667,174.553503
57.62,174.533778
57.703056,174.45488
57.786389,174.435156
57.869722,174.415431
57.953056,174.375982
58.036389,174.336533
58.119722,174.326671
58.203056,174.267497
58.286389,174.247772
58.369722,174.208323
58.453056,174.218185
58.536389,174.188599
58.619444,174.139287
58.702778,174.099838
58.786111,174.030802
58.869444,173.971629
58.952778,173.922317
59.036111,173.902593
59.119444,173.853281
59.202778,173.813832
59.286111,173.774383
59.369444,173.774383
59.452778,173.764521
59.536111,173.725072
59.619167,173.665898
59.7025,173.646173
59.785833,173.596862
59.869167,173.547551
59.9525,173.527826
60.035833,173.488377
60.119167,173.478515
60.2025,173.419341
60.285833,173.419341
60.369167,173.37003
60.4525,173.37003
60.535833,173.330581
60.618889,173.291131
60.702222,173.212233
60.785556,173.192509
60.868889,173.113611
60.952222,173.113611
61.035556,173.064299
61.118889,173.014988
61.202222,173.005125
61.285556,173.005125
61.368889,173.014988
61.452222,173.005125
61.535278,173.034712
61.618611,173.02485
61.701944,172.995263
61.785278,173.005125
61.868611,172.975539
61.951944,172.93609
62.035278,172.916365
62.118611,172.867054
62.201944,172.857191
62.285278,172.788155
62.368611,172.758569
62.451667,172.748706
62.535,172.778293
62.618333,172.778293
62.701667,172.728982
62.785,172.748706
62.868333,172.689533
62.951667,172.659946
63.035,172.571185
63.118333,172.551461
63.201667,172.512012
63.285,172.442976
63.368333,172.413389
63.451389,172.413389
63.534722,172.393664
63.618056,172.364077
63.701389,172.344353
63.784722,172.324628
63.868056,172.265455
63.951389,172.235868
64.034722,172.196419
64.118056,172.117521
64.201389,172.078071
64.284722,172.078071
64.367778,172.009036
64.451111,171.969586
64.534444,171.969586
64.617778,171.930137
64.701111,171.969586
64.784444,171.90055
64.867778,171.851239
64.951111,171.821652
65.034444,171.772341
65.117778,171.762479
65.201111,171.713167
65.284444,171.663856
65.3675,171.644131
65.450833,171.59482
65.534167,171.545509
65.6175,171.565233
65.700833,171.545509
65.784167,171.515922
65.8675,171.515922
65.950833,171.476473
66.034167,171.456748
66.1175,171.417299
66.200833,171.397574
66.283889,171.37785
66.367222,171.348263
66.450556,171.308814
66.533889,171.298952
66.617222,171.308814
66.700556,171.308814
66.783889,171.318676
66.867222,171.328538
66.950556,171.298952
67.033889,171.279227
67.117222,171.220053
67.200556,171.16088
67.283611,171.16088
67.366944,171.141155
67.450278,171.072119
67.533611,171.052395
67.616944,171.072119
67.700278,171.052395
67.783611,171.03267
67.866944,170.993221
67.950278,170.973496
68.033611,170.894598
68.116944,170.894598
68.2,170.825562
68.283333,170.865011
68.366667,170.904461
68.45,170.874874
68.533333,170.786113
68.616667,170.72694
68.7,170.736802
68.783333,170.707215
68.866667,170.648041
68.95,170.717077
69.033333,170.707215
69.116667,170.697353
69.199722,170.588868
69.283056,170.490245
69.366389,170.480383
69.449722,170.421209
69.533056,170.411347
69.616389,170.440934
69.699722,170.440934
69.783056,170.401484
69.866389,170.322586
69.949722,170.223963
70.033056,170.214101
70.116111,170.194377
70.199444,170.204239
70.282778,170.223963
70.366111,170.223963
70.449444,170.223963
70.532778,170.085892
70.616111,169.997131
70.699444,169.967544
70.782778,170.026718
70.866111,170.016856
70.949444,169.997131
71.032778,170.026718
71.115833,169.987269
71.199167,169.908371
71.2825,169.780161
71.365833,169.740712
71.449167,169.760436
71.5325,169.760436
71.615833,169.760436
71.699167,169.73085
71.7825,169.711125
71.865833,169.592778
71.949167,169.523742
72.032222,169.405395
72.115556,169.395532
72.198889,169.296909
72.282222,169.227874
72.365556,169.109526
72.448889,168.991179
72.532222,168.784071
72.615556,168.705173
72.698889,168.665724
72.782222,168.695311
72.865556,168.813658
72.948889,168.843245
73.031944,168.862969
73.115278,168.872832
73.198611,168.73476
73.281944,168.675586
73.365278,168.636137
73.448611,168.705173
73.531944,168.715035
73.615278,168.724897
73.698611,168.685448
73.781944,168.665724
73.865278,168.557239
73.948333,168.458616
74.031667,168.438891
74.115,168.498065
74.198333,168.537514
74.281667,168.557239
74.365,168.51779
74.448333,168.626275
74.531667,168.715035
74.615,168.793933
74.698333,168.596688
74.781667,168.527652
74.864722,168.419167
74.948056,168.330406
75.031389,168.241646
75.114722,168.182472
75.198056,168.064125
75.281389,167.935915
75.364722,167.787981
75.448056,167.709083
75.531389,167.61046
75.614722,167.5217
75.698056,167.403352
75.781389,167.196245
75.864444,166.949688
75.947778,166.791891
76.031111,166.791891
76.114444,166.663682
76.197778,166.653819
76.281111,166.604508
76.364444,166.426987
76.447778,166.239604
76.531111,166.131119
76.614444,166.032496
76.697778,166.002909
76.780833,165.884562
76.864167,165.726765
76.9475,165.519658
77.030833,165.332274
77.114167,165.233652
77.1975,165.174478
77.280833,165.18434
77.364167,165.154753
77.4475,165.135029
77.530833,165.125166
77.614167,165.125166
77.6975,165.115304
77.780556,165.075855
77.863889,165.026544
77.947222,164.996957
78.030556,164.927921
78.113889,164.868747
78.197222,164.83916
78.280556,164.799711
78.363889,164.720813
78.447222,164.681364
78.530556,164.563017
78.613889,164.493981
78.696944,164.444669
78.780278,164.385496
78.863611,164.326322
78.946944,164.237562
79.030278,164.148801
79.113611,164.148801
79.196944,164.09949
79.280278,164.079765
79.363611,164.267148
79.446944,164.306598
79.530278,164.336184
79.613333,164.385496
79.696667,164.434807
79.78,164.503843
79.863333,164.53343
79.946667,164.582741
80.03,164.543292
80.113333,164.424945
80.196667,164.31646
80.28,164.198113
80.363333,164.040316
80.446667,163.902244
80.529722,163.793759
80.613056,163.833208
80.696389,163.803621
80.779722,163.774035
80.863056,163.764172
80.946389,163.783897
81.029722,163.823346
81.113056,163.823346
81.196389,163.902244
81.279722,164.000867
81.363056,164.060041
81.446389,164.069903
81.529444,164.109352
81.612778,164.089627
81.696111,164.089627
81.779444,164.09949
