time,pressure
0.0,53.452292
0.1775,53.442614
0.177778,53.442614
0.178056,53.442614
0.178333,53.442614
0.178611,53.442614
0.178889,53.442614
0.212222,52.982891
0.245556,52.60253
0.278889,52.202813
0.312222,52.032473
0.345556,51.902783
0.378889,51.752768
0.412222,51.582428
0.445556,51.512744
0.478889,51.372407
0.512222,51.242717
0.545556,51.122705
0.578889,51.023017
0.612222,50.882681
0.645556,50.762669
0.678889,50.702663
0.712222,50.602975
0.745556,50.482963
0.778889,50.402633
0.812222,50.312624
0.845556,50.242939
0.878889,50.20229
0.912222,50.122927
0.945278,50.062921
0.978611,50.012594
1.011944,49.962266
1.045278,49.862579
1.078611,49.842254
1.111944,49.762891
1.145278,49.702885
1.178611,49.652558
1.211944,49.622555
1.245278,49.532546
1.278611,49.47254
1.311944,49.432858
1.345278,49.372852
1.378611,49.322525
1.411944,49.262519
1.445278,49.222837
1.478611,49.17251
1.511944,49.132828
1.545278,49.072822
1.578611,49.012816
1.611944,49.00217
1.645278,48.972167
1.678611,48.902483
1.711944,48.892804
1.745278,48.842477
1.778611,48.793117
1.811944,48.752468
1.845278,48.722465
1.878611,48.673105
1.911944,48.673105
1.945278,48.622777
1.978611,48.583096
2.011944,48.532768
2.045278,48.502765
2.078611,48.472762
2.111944,48.422435
2.145278,48.362429
2.178611,48.313069
2.211944,48.283066
2.245278,48.232738
2.278611,48.212414
2.311944,48.182411
2.345278,48.142729
2.378611,48.092402
2.411944,48.073045
2.445278,48.032396
2.478611,48.013039
2.511944,47.942387
2.545278,47.953033
2.578611,47.902705
2.611944,47.863024
2.645278,47.822375
2.678611,47.803018
2.711944,47.792372
2.745278,47.75269
2.778611,47.732366
2.811944,47.692684
2.845278,47.632678
2.878611,47.632678
2.911944,47.632678
2.945278,47.632678
2.978611,47.592997
3.011944,47.542669
3.045278,47.522345
3.078611,47.502988
3.111944,47.432336
3.145278,47.442982
3.178611,47.382976
3.211944,47.352973
3.245278,47.332648
3.278611,47.302645
3.311944,47.272642
3.345278,47.262964
3.378611,47.232961
3.411944,47.242639
3.445278,47.262964
3.478611,47.272642
3.511944,47.252318
3.545278,47.252318
3.578611,47.222315
3.611944,47.212636
3.645278,47.202958
3.678611,47.192312
3.711944,47.15263
3.745278,47.172955
3.778611,47.162309
3.811944,47.132306
3.845278,47.132306
3.878611,47.132306
3.911944,47.112949
3.945278,47.112949
3.978611,47.092624
4.011944,47.082946
4.045278,47.0723
4.078611,47.0723
4.111944,47.032618
4.145278,47.012294
4.178611,47.012294
4.211944,47.012294
4.245278,46.982291
4.278611,46.952288
4.311944,46.952288
4.345278,46.932931
4.378611,46.892282
4.411944,46.902928
4.445278,46.872925
4.478611,46.862279
4.511944,46.862279
4.545278,46.822597
4.578611,46.812919
4.611944,46.782916
4.645278,46.77227
4.678611,46.782916
4.711944,46.752913
4.745278,46.752913
4.778611,46.742267
4.811944,46.712264
4.845278,46.702585
4.878611,46.692907
4.911944,46.662904
4.945278,46.662904
4.978611,46.632901
5.011944,46.652258
5.045278,46.612576
5.078611,46.612576
5.111944,46.602898
5.145278,46.55257
5.178611,46.55257
5.211944,46.532246
5.245278,46.522567
5.278611,46.522567
5.311944,46.502243
5.345278,46.502243
5.378611,46.502243
5.411944,46.442237
5.445278,46.42288
5.478611,46.412234
5.511944,46.402555
5.545278,46.392877
5.578611,46.382231
5.611944,46.372552
5.645278,46.342549
5.678611,46.342549
5.711944,46.332871
5.745278,46.322225
5.778611,46.322225
5.811944,46.302868
5.845278,46.282543
5.878611,46.272865
5.911944,46.25254
5.945278,46.232216
5.978611,46.242862
6.011944,46.222537
6.045278,46.192534
6.078611,46.202213
6.111944,46.192534
6.145278,46.182856
6.178611,46.17221
6.211944,46.17221
6.245278,46.12285
6.278611,46.12285
6.311944,46.102525
6.345278,46.082201
6.378611,46.082201
6.411944,46.092847
6.445278,46.072522
6.478611,46.042519
6.511944,46.032841
6.545278,46.012516
6.578611,46.022195
6.611944,45.992192
6.645278,45.982513
6.678611,45.962189
6.711944,45.95251
6.745278,45.942832
6.778611,45.912829
6.811944,45.912829
6.845278,45.87218
6.878611,45.902183
6.911944,45.882826
6.945278,45.852823
6.978611,45.852823
7.011944,45.842177
7.045278,45.832498
7.078611,45.792817
7.111944,45.802495
7.145278,45.772492
7.178611,45.762814
7.211944,45.752168
7.245278,45.742489
7.278611,45.722165
7.311944,45.732811
7.345278,45.702808
7.378611,45.682483
7.411944,45.672805
7.445278,45.65248
7.478611,45.663126
7.511944,45.622477
7.545278,45.612799
7.578611,45.612799
7.611944,45.592474
7.645278,45.582796
7.678611,45.582796
7.711944,45.562471
7.745278,45.552793
7.778611,45.532468
7.811944,45.532468
7.845278,45.502465
7.878611,45.502465
7.911944,45.472462
7.945278,45.483108
7.978611,45.453105
8.011944,45.442459
8.045278,45.423102
8.078611,45.442459
8.111944,45.393099
8.145278,45.402778
8.178611,45.382453
8.211944,45.382453
8.245278,45.372775
8.278611,45.35245
8.311944,45.363096
8.345278,45.342772
8.378611,45.333093
8.411944,45.322447
8.445278,45.30309
8.478611,45.30309
8.511944,45.282766
8.545278,45.273087
8.578611,45.252763
8.611944,45.232438
8.645278,45.252763
8.678611,45.213081
8.711944,45.213081
8.745278,45.183078
8.778611,45.213081
8.811944,45.192757
8.845278,45.172432
8.878611,45.183078
8.911944,45.142429
8.945278,45.142429
8.978611,45.132751
9.011944,45.112426
9.045278,45.102748
9.078611,45.093069
9.111944,45.072745
9.145278,45.072745
9.178611,45.05242
9.211944,45.033063
9.245278,45.022417
9.278611,45.00306
9.311944,45.012739
9.345278,44.992414
9.378611,44.992414
9.411944,44.982736
9.445278,44.982736
9.478611,44.952733
9.511944,44.943054
9.545278,44.92273
9.578611,44.92273
9.611944,44.932408
9.645278,44.913051
9.678611,44.913051
9.711944,44.883048
9.745278,44.862724
9.778889,44.872402
9.812222,44.853045
9.845556,44.842399
9.878889,44.832721
9.912222,44.823042
9.945556,44.823042
9.978889,44.793039
10.012222,44.782393
10.045556,44.772715
10.078889,44.772715
10.112222,44.782393
10.145556,44.75239
10.178889,44.742712
10.212222,44.742712
10.245556,44.722387
10.278889,44.712709
10.312222,44.70303
10.345556,44.70303
10.378889,44.662381
10.412222,44.662381
10.445556,44.643024
10.478889,44.643024
10.512222,44.632378
10.545556,44.613021
10.578889,44.602375
10.612222,44.592697
10.645556,44.602375
10.678889,44.572372
10.712222,44.592697
10.745556,44.562694
10.778889,44.553015
10.812222,44.542369
10.845556,44.532691
10.878889,44.512366
10.912222,44.523012
10.945556,44.482363
10.978889,44.493009
11.012222,44.493009
11.045556,44.472685
11.078889,44.45236
11.112222,44.45236
11.145556,44.45236
11.178889,44.45236
11.212222,44.442682
11.245556,44.412679
11.278889,44.412679
11.312222,44.412679
11.345556,44.372997
11.378889,44.362351
11.412222,44.362351
11.445556,44.372997
11.478889,44.352673
11.512222,44.332348
11.545556,44.332348
11.578889,44.32267
11.612222,44.312991
11.645556,44.312991
11.678889,44.32267
11.712222,44.292667
11.745556,44.272342
11.778889,44.272342
11.812222,44.252985
11.845556,44.242339
11.878889,44.242339
11.912222,44.212336
11.945556,44.232661
11.978889,44.212336
12.012222,44.212336
12.045556,44.202658
12.078889,44.202658
12.112222,44.192979
12.145556,44.192979
12.178889,44.192979
12.212222,44.15233
12.245556,44.15233
12.278889,44.182333
12.312222,44.162976
12.345556,44.122327
12.378889,44.132973
12.412222,44.132973
12.445556,44.132973
12.478889,44.122327
12.512222,44.112649
12.545556,44.112649
12.578889,44.10297
12.612222,44.10297
12.645556,44.112649
12.678889,44.082646
12.712222,44.072967
12.745556,44.092324
12.778889,44.042964
12.812222,44.052643
12.845556,44.042964
12.878889,44.052643
12.912222,44.032318
12.945556,44.032318
12.978889,44.012961
13.012222,44.02264
13.045556,44.02264
13.078889,43.992637
13.112222,44.002315
13.145556,43.982958
13.178889,44.002315
13.212222,43.982958
13.245556,43.982958
13.278889,43.952955
13.312222,43.962634
13.345556,43.932631
13.378889,43.952955
13.412222,43.912306
13.445556,43.902628
13.478889,43.922952
13.512222,43.922952
13.545556,43.922952
13.578889,43.912306
13.612222,43.902628
13.645556,43.892949
13.678889,43.892949
13.712222,43.882303
13.745556,43.872625
13.778889,43.8523
13.812222,43.822297
13.845556,43.812619
13.878889,43.812619
13.912222,43.822297
13.945556,43.822297
13.978889,43.80294
14.012222,43.782616
14.045556,43.782616
14.078889,43.792294
14.112222,43.762291
14.145556,43.752613
14.178889,43.712931
14.212222,43.72261
14.245556,43.732288
14.278889,43.712931
14.312222,43.692607
14.345556,43.692607
14.378889,43.692607
14.412222,43.682928
14.445556,43.642279
14.478889,43.532913
14.512222,43.492264
14.545556,43.482586
14.578889,43.492264
14.612222,43.522267
14.645556,43.542592
14.678889,43.582273
14.712222,43.592919
14.745556,43.632601
14.778889,43.672282
14.812222,43.692607
14.845556,43.712931
14.878889,43.742934
14.912222,43.762291
14.945556,43.772937
14.978889,43.792294
15.012222,43.822297
15.045556,43.832943
15.078889,43.8523
15.112222,43.8523
15.145556,43.8523
15.178889,43.842622
15.212222,43.882303
15.245556,43.872625
15.278889,43.872625
15.312222,43.872625
15.345556,43.872625
15.378889,43.892949
15.412222,43.882303
15.445556,43.882303
15.478889,43.882303
15.512222,43.902628
15.545556,43.912306
15.578889,43.922952
15.612222,43.892949
15.645556,43.912306
15.678889,43.922952
15.712222,43.912306
15.745556,43.922952
15.778889,43.912306
15.812222,43.902628
15.845556,43.912306
15.878889,43.942309
15.912222,43.962634
15.945556,44.012961
15.978889,44.052643
16.012222,44.082646
16.045556,44.092324
16.078889,44.142652
16.112222,44.15233
16.145556,44.162976
16.178889,44.172655
16.212222,44.182333
16.245556,44.182333
16.278889,44.212336
16.312222,44.212336
16.345556,44.192979
16.378889,44.192979
16.412222,44.172655
16.445556,44.202658
16.478889,44.15233
16.512222,44.172655
16.545556,44.132973
16.578889,44.142652
16.612222,44.122327
16.645556,44.112649
16.678889,44.112649
16.712222,44.122327
16.745556,44.112649
16.778889,44.092324
16.812222,44.082646
16.845556,44.092324
16.878889,44.082646
16.912222,44.082646
16.945556,44.092324
16.978889,44.062321
17.012222,44.042964
17.045556,44.02264
17.078889,44.02264
17.112222,44.012961
17.145556,44.02264
17.178889,44.012961
17.212222,44.032318
17.245556,44.012961
17.278889,44.012961
17.312222,44.002315
17.345556,44.02264
17.378889,44.002315
17.412222,44.012961
17.445556,43.992637
17.478889,44.012961
17.512222,43.972312
17.545556,43.982958
17.578889,43.972312
17.612222,43.962634
17.645556,43.952955
17.678889,43.952955
17.712222,43.952955
17.745556,43.922952
17.778889,43.922952
17.812222,43.922952
17.845556,43.922952
17.878889,43.902628
17.912222,43.892949
17.945556,43.882303
17.978889,43.892949
18.012222,43.882303
18.045556,43.882303
18.078889,43.882303
18.112222,43.842622
18.145556,43.882303
18.178889,43.872625
18.212222,43.882303
18.245556,43.822297
18.278889,43.832943
18.312222,43.822297
18.345556,43.822297
18.378889,43.822297
18.412222,43.832943
18.445556,43.822297
18.478889,43.812619
18.512222,43.812619
18.545556,43.772937
18.578889,43.80294
18.612222,43.782616
18.645556,43.772937
18.678889,43.782616
18.712222,43.752613
18.745556,43.752613
18.778889,43.762291
18.812222,43.742934
18.845556,43.732288
18.878889,43.742934
18.912222,43.712931
18.945556,43.712931
18.978889,43.72261
19.012222,43.692607
19.045556,43.682928
19.078889,43.692607
19.112222,43.702285
19.145556,43.662604
19.178889,43.682928
19.212222,43.682928
19.245556,43.682928
19.278889,43.662604
19.312222,43.642279
19.345556,43.622922
19.378889,43.652925
19.412222,43.632601
19.445556,43.642279
19.478889,43.622922
19.512222,43.632601
19.545556,43.632601
19.578889,43.622922
19.612222,43.602598
19.645556,43.622922
19.678889,43.622922
19.712222,43.612276
19.745556,43.602598
19.778889,43.592919
19.812222,43.592919
19.845556,43.592919
19.878889,43.592919
19.912222,43.572595
19.945556,43.572595
19.978889,43.582273
20.012222,43.562916
20.045556,43.532913
20.078889,43.542592
20.112222,43.532913
20.145556,43.55227
20.178889,43.532913
20.212222,43.532913
20.245556,43.492264
20.278889,43.50291
20.312222,43.512589
20.345556,43.512589
20.378889,43.50291
20.412222,43.482586
20.445556,43.492264
20.478889,43.472907
20.512222,43.472907
20.545556,43.462261
20.578889,43.452583
20.612222,43.482586
20.645556,43.452583
20.678889,43.442904
20.712222,43.42258
20.745556,43.42258
20.778889,43.42258
20.812222,43.432258
20.845556,43.412901
20.878889,43.392577
20.912222,43.392577
20.945556,43.392577
20.978889,43.382898
21.012222,43.372252
21.045556,43.382898
21.078889,43.372252
21.112222,43.372252
21.145556,43.372252
21.178889,43.362574
21.212222,43.322892
21.245556,43.352895
21.278889,43.352895
21.312222,43.362574
21.345556,43.302568
21.378889,43.312246
21.412222,43.302568
21.445556,43.312246
21.478889,43.272565
21.512222,43.262886
21.545556,43.272565
21.578889,43.272565
21.612222,43.242562
21.645556,43.232883
21.678889,43.232883
21.712222,43.212559
21.745556,43.232883
21.778889,43.20288
21.812222,43.192234
21.845556,43.182556
21.878889,43.182556
21.912222,43.152553
21.945556,43.172877
21.978889,43.172877
22.012222,43.162231
22.045556,43.162231
22.078889,43.142874
22.112222,43.132228
22.145556,43.132228
22.178889,43.112871
22.212222,43.112871
22.245556,43.132228
22.278889,43.142874
22.312222,43.12255
22.345556,43.112871
22.378889,43.102225
22.412222,43.102225
22.445556,43.102225
22.478889,43.092547
22.512222,43.102225
22.545556,43.082868
22.578889,43.062544
22.612222,43.072222
22.645556,43.052865
22.678889,43.062544
22.712222,43.062544
22.745556,43.052865
22.778889,43.032541
22.812222,43.052865
22.845556,43.022862
22.878889,43.032541
22.912222,43.012216
22.945556,43.012216
22.978889,43.022862
23.012222,43.022862
23.045556,43.012216
23.078889,43.002538
23.112222,42.992859
23.145556,42.972535
23.178889,42.972535
23.212222,42.972535
23.245556,42.982213
23.278889,42.962856
23.312222,42.962856
23.345556,42.972535
23.378889,42.922207
23.412222,42.962856
23.445556,42.942532
23.478889,42.942532
23.512222,42.942532
23.545556,42.932853
23.578889,42.962856
23.612222,42.922207
23.645556,42.932853
23.678889,42.912529
23.712222,42.90285
23.745556,42.922207
23.778889,42.892204
23.812222,42.882526
23.845556,42.90285
23.878889,42.892204
23.912222,42.862201
23.945556,42.862201
23.978889,42.862201
24.012222,42.862201
24.045556,42.862201
24.078889,42.882526
24.112222,42.862201
24.145556,42.862201
24.178889,42.862201
24.212222,42.852523
24.245556,42.842844
24.278889,42.852523
24.312222,42.832198
24.345556,42.832198
24.378889,42.852523
24.412222,42.842844
24.445556,42.832198
24.478889,42.842844
24.512222,42.802195
24.545556,42.832198
24.578889,42.832198
24.612222,42.802195
24.645556,42.812841
24.678889,42.802195
24.712222,42.842844
24.745556,42.792517
24.778889,42.802195
24.812222,42.792517
24.845556,42.772192
24.878889,42.792517
24.912222,42.782838
24.946389,42.782838
24.979722,42.772192
25.013056,42.782838
25.046389,42.782838
25.079722,42.772192
25.113056,42.762514
25.146389,42.752835
25.179722,42.752835
25.213056,42.742189
25.246389,42.752835
25.279722,42.742189
25.313056,42.752835
25.346389,42.752835
25.379722,42.752835
25.413056,42.732511
25.446389,42.722832
25.479722,42.722832
25.513056,42.712186
25.546389,42.702508
25.579722,42.702508
25.613056,42.702508
25.646389,42.712186
25.679722,42.682183
25.713056,42.692829
25.746389,42.702508
25.779722,42.672505
25.813056,42.672505
25.846389,42.672505
25.879722,42.682183
25.913056,42.672505
25.946389,42.672505
25.979722,42.662826
26.013056,42.662826
26.046389,42.642502
26.079722,42.642502
26.113056,42.642502
26.146389,42.642502
26.179722,42.642502
26.213056,42.642502
26.246389,42.642502
26.279722,42.632823
26.313056,42.632823
26.346389,42.622177
26.379722,42.612499
26.413056,42.592174
26.446389,42.592174
26.479722,42.592174
26.513056,42.592174
26.546389,42.562171
26.579722,42.582496
26.613056,42.552493
26.646389,42.572817
26.679722,42.552493
26.713056,42.552493
26.746389,42.542814
26.779722,42.542814
26.813056,42.542814
26.846389,42.542814
26.879722,42.542814
26.913056,42.52249
26.946389,42.542814
26.979722,42.52249
27.013056,42.542814
27.046389,42.512811
27.079722,42.52249
27.113056,42.533136
27.146389,42.512811
27.179722,42.482808
27.213056,42.503133
27.246389,42.512811
27.279722,42.482808
27.313056,42.47313
27.346389,42.47313
27.379722,42.462484
27.413056,42.462484
27.446389,42.47313
27.479722,42.452805
27.513056,42.452805
27.546389,42.443127
27.579722,42.443127
27.613056,42.443127
27.646389,42.422802
27.679722,42.432481
27.713056,42.432481
27.746389,42.422802
27.779722,42.413124
27.813056,42.402478
27.846389,42.413124
27.879722,42.383121
27.913056,42.383121
27.946389,42.383121
27.979722,42.402478
28.013056,42.372475
28.046389,42.392799
28.079722,42.372475
28.113056,42.362796
28.146389,42.362796
28.179722,42.353118
28.213056,42.332793
28.246389,42.362796
28.279722,42.362796
28.313056,42.342472
28.346389,42.332793
28.379722,42.342472
28.413056,42.353118
28.446389,42.323115
28.479722,42.323115
28.513056,42.332793
28.546389,42.272787
28.579722,42.293112
28.613056,42.272787
28.646389,42.272787
28.679722,42.272787
28.713056,42.272787
28.746389,42.263109
28.779722,42.272787
28.813056,42.233106
28.846389,42.242784
28.879722,42.233106
28.913056,42.233106
28.946389,42.233106
28.979722,42.22246
29.013056,42.212781
29.046389,42.212781
29.079722,42.203103
29.113056,42.203103
29.146389,42.182778
29.179722,42.212781
29.213056,42.1731
29.246389,42.1731
29.279722,42.162454
29.313056,42.152775
29.346389,42.162454
29.379722,42.143097
29.413056,42.152775
29.446389,42.162454
29.479722,42.143097
29.513056,42.143097
29.546389,42.132451
29.579722,42.122772
29.613056,42.102448
29.646389,42.122772
29.679722,42.113094
29.713056,42.122772
29.746389,42.113094
29.779722,42.092769
29.813056,42.102448
29.846389,42.092769
29.879722,42.083091
29.913056,42.072445
29.946389,42.092769
29.979722,42.083091
30.013056,42.042442
30.046389,42.053088
30.079722,42.072445
30.113056,42.042442
30.146389,42.053088
30.179722,42.053088
30.213056,42.053088
30.246389,42.032763
30.279722,42.042442
30.313056,42.042442
30.346389,42.023085
30.379722,42.032763
30.413056,42.012439
30.446389,42.023085
30.479722,41.982436
30.513056,41.982436
30.546389,42.00276
30.579722,42.012439
30.613056,42.00276
30.646389,41.993082
30.679722,41.982436
30.713056,41.982436
30.746389,42.00276
30.779722,41.972757
30.813056,41.963079
30.846389,41.972757
30.879722,41.972757
30.913056,41.972757
30.946389,41.942754
30.979722,41.942754
31.013056,41.912751
31.046389,41.912751
31.079722,41.822742
31.113056,41.723055
31.146389,41.633046
31.179722,41.57304
31.213056,41.552715
31.246389,41.582718
31.279722,41.57304
31.313056,41.57304
31.346389,41.633046
31.379722,41.693052
31.413056,41.70273
31.446389,41.762736
31.479722,41.783061
31.513056,41.762736
31.546389,41.813064
31.579722,41.813064
31.613056,41.762736
31.646389,41.742412
31.679722,41.732733
31.713056,41.712409
31.746389,41.723055
31.779722,41.70273
31.813056,41.672727
31.846389,41.682406
31.879722,41.633046
31.913056,41.642724
31.946389,41.633046
31.979722,41.603043
32.013056,41.612721
32.046389,41.57304
32.079722,41.592397
32.113056,41.592397
32.146389,41.592397
32.179722,41.582718
32.213056,41.57304
32.246389,41.562394
32.279722,41.543037
32.313056,41.552715
32.346389,41.543037
32.379722,41.513034
32.413056,41.522712
32.446389,41.513034
32.479722,41.483031
32.513056,41.492709
32.546389,41.472385
32.579722,41.483031
32.613056,41.483031
32.646389,41.453028
32.679722,41.462706
32.713056,41.462706
32.746389,41.462706
32.779722,41.462706
32.813056,41.472385
32.846389,41.453028
32.879722,41.453028
32.913056,41.453028
32.946389,41.472385
32.979722,41.432703
33.013056,41.462706
33.046389,41.462706
33.079722,41.453028
33.113056,41.453028
33.146389,41.423025
33.179722,41.453028
33.213056,41.412379
33.246389,41.432703
33.279722,41.412379
33.313056,41.423025
33.346389,41.412379
33.379722,41.4027
33.413056,41.412379
33.446389,41.4027
33.479722,41.4027
33.513056,41.393022
33.546389,41.393022
33.579722,41.382376
33.613056,41.393022
33.646389,41.363019
33.679722,41.393022
33.713056,41.363019
33.746389,41.382376
33.779722,41.382376
33.813056,41.372697
33.846389,41.372697
33.879722,41.363019
33.913056,41.363019
