time,pressure
0.0,91.118107
0.416667,89.18243
0.583333,88.214591
0.916667,87.246753
1.166667,86.278914
1.416667,85.311075
1.916667,83.375398
2.416667,82.407559
2.815556,81.73975
2.898889,81.555861
2.982222,81.313901
3.065556,81.13969
3.148889,80.955801
3.232222,80.78159
3.315278,80.597701
3.398611,80.384776
3.481944,80.220244
3.565278,80.046033
3.648611,79.871822
3.731944,79.678254
3.815278,79.513721
3.898611,79.358867
3.981944,79.204013
4.065278,79.020123
4.148333,78.865269
4.231667,78.720093
4.315,78.565239
4.398333,78.429742
4.481667,78.284566
4.565,78.158747
4.648333,78.02325
4.731667,77.897431
4.815,77.72322
4.898333,77.587722
4.981667,77.442546
5.064722,77.316727
5.148056,77.132838
5.231389,76.997341
5.314722,76.852165
5.398056,76.716667
5.481389,76.571492
5.564722,76.406959
5.648056,76.271462
5.731389,76.145642
5.814722,76.019823
5.897778,75.855291
5.981111,75.73915
6.064444,75.613331
6.147778,75.487512
6.231111,75.32298
6.314444,75.206839
6.397778,75.071342
6.481111,74.955201
6.564444,74.83906
6.647778,74.684206
6.731111,74.568065
6.814167,74.432568
6.8975,74.326106
6.980833,74.171252
7.064167,74.055111
7.1475,73.948649
7.230833,73.82283
7.314167,73.687332
7.3975,73.561513
7.480833,73.455051
7.564167,73.329232
7.647222,73.184056
7.730556,73.077594
7.813889,72.951775
7.897222,72.835634
7.980556,72.729172
8.063889,72.583996
8.147222,72.477534
8.230556,72.351715
8.313889,72.245252
8.397222,72.109755
8.480556,72.003293
8.563611,71.887152
8.646944,71.78069
8.730278,71.645192
8.813611,71.53873
8.896944,71.42259
8.980278,71.316127
9.063611,71.161273
9.146944,71.054811
9.230278,70.948349
9.313611,70.841886
9.396667,70.735424
9.48,70.599927
9.563333,70.483786
9.646667,70.387002
9.73,70.28054
9.813333,70.135364
9.896667,70.028902
9.98,69.912761
10.063333,69.825656
10.146667,69.690158
10.23,69.583696
10.313056,69.477234
10.396389,69.38045
10.479722,69.254631
10.563056,69.157847
10.646389,69.041706
10.729722,68.944922
10.813056,68.819103
10.896389,68.712641
10.979722,68.615857
11.063056,68.519073
11.146389,68.42229
11.229444,68.29647
11.312778,68.199687
11.396111,68.093224
11.479444,68.006119
11.562778,67.8803
11.646111,67.783516
11.729444,67.686732
11.812778,67.589948
11.896111,67.464129
11.979444,67.377024
12.0625,67.28024
12.145833,67.173778
12.229167,67.057637
12.3125,66.970531
12.395833,66.864069
12.479167,66.767285
12.5625,66.641466
12.645833,66.544682
12.729167,66.447899
12.8125,66.341436
12.895833,66.225296
12.978889,66.128512
13.062222,66.012371
13.145556,65.934944
13.228889,65.809125
13.312222,65.692984
13.395556,65.5962
13.478889,65.499417
13.562222,65.363919
13.645556,65.267135
13.728889,65.160673
13.811944,65.054211
13.895278,64.957427
13.978611,64.831608
14.061944,64.734824
14.145278,64.63804
14.228611,64.531578
14.311944,64.415437
14.395278,64.318653
14.478611,64.221869
14.561944,64.125086
14.645278,63.999267
14.728333,63.902483
14.811667,63.805699
14.895,63.708915
14.978333,63.583096
15.061667,63.49599
15.145,63.399207
15.228333,63.302423
15.311667,63.186282
15.395,63.089498
15.478333,62.992714
15.561389,62.89593
15.644722,62.77979
15.728056,62.683006
15.811389,62.5959
15.894722,62.499117
15.978056,62.373298
16.061389,62.276514
16.144722,62.17973
16.228056,62.082946
16.311389,61.966805
16.394722,61.870021
16.477778,61.773238
16.561111,61.676454
16.644444,61.589348
16.727778,61.473208
16.811111,61.376424
16.894444,61.27964
16.977778,61.182856
17.061111,61.066715
17.144444,60.97961
17.227778,60.873148
17.310833,60.786042
17.394167,60.67958
17.4775,60.582796
17.560833,60.49569
17.644167,60.398907
17.7275,60.273088
17.810833,60.185982
17.894167,60.098877
17.9775,60.002093
18.060833,59.885952
18.144167,59.798847
18.227222,59.702063
18.310556,59.614957
18.393889,59.498817
18.477222,59.392354
18.560556,59.305249
18.643889,59.208465
18.727222,59.092324
18.810556,59.005219
18.893889,58.908435
18.977222,58.821329
19.060556,58.714867
19.143611,58.627762
19.226944,58.540656
19.310278,58.443872
19.393611,58.347088
19.476944,58.259983
19.560278,58.172877
19.643611,58.09545
19.726944,57.998667
19.810278,57.911561
19.893611,57.824456
19.976667,57.747028
20.06,57.650245
20.143333,57.553461
20.226667,57.485712
20.31,57.408285
20.393333,57.292144
20.476667,57.214717
20.56,57.13729
20.643333,57.069541
20.726667,56.963079
20.81,56.885652
20.893056,56.808225
20.976389,56.730798
21.059722,56.624336
21.143056,56.53723
21.226389,56.469481
21.309722,56.382376
21.393056,56.285592
21.476389,56.217843
21.559722,56.150095
21.643056,56.062989
21.726111,55.99524
21.809444,55.917813
21.892778,55.830708
21.976111,55.753281
22.059444,55.666175
22.142778,55.57907
22.226111,55.491964
22.309444,55.414537
22.392778,55.33711
22.476111,55.250005
22.559444,55.162899
22.6425,55.09515
22.725833,55.027402
22.809167,54.940296
22.8925,54.843512
22.975833,54.785442
23.059167,54.717693
23.1425,54.630588
23.225833,54.553161
23.309167,54.466055
23.3925,54.388628
23.475556,54.291844
23.558889,54.224096
23.642222,54.156347
23.725556,54.07892
23.808889,53.991814
23.892222,53.924066
23.975556,53.856317
24.058889,53.77889
24.142222,53.701463
24.225556,53.624035
24.308889,53.556287
24.391944,53.488538
24.475278,53.420789
24.558611,53.333684
24.641944,53.265935
24.725278,53.188508
24.808611,53.120759
24.891944,53.023975
24.975278,52.956227
25.058611,52.898156
25.141944,52.830408
25.225,52.743302
25.308333,52.675554
25.391667,52.617483
25.475,52.549735
25.558333,52.462629
25.641667,52.404559
25.725,52.346488
25.808333,52.288418
25.891667,52.220669
25.975,52.143242
26.058333,52.085172
26.141389,52.027102
26.224722,51.959353
26.308056,51.891604
26.391389,51.843212
26.474722,51.785142
26.558056,51.727072
26.641389,51.659323
26.724722,51.591574
26.808056,51.533504
26.891389,51.465755
26.974444,51.417363
27.057778,51.368971
27.141111,51.349615
27.224444,51.330258
27.307778,51.301223
27.391111,51.281866
27.474444,51.272187
27.557778,51.243152
27.641111,51.233474
27.724444,51.214117
27.807778,51.204439
27.890833,51.175404
27.974167,51.13669
28.0575,51.117333
28.140833,51.097976
28.224167,51.059263
28.3075,51.030228
28.390833,51.010871
28.474167,50.972157
28.5575,50.943122
28.640833,50.904409
28.723889,50.875374
28.807222,50.846338
28.890556,50.817303
28.973889,50.788268
29.057222,50.739876
29.140556,50.691484
29.223889,50.643092
29.307222,50.5947
29.390556,50.575344
29.473889,50.546308
29.557222,50.526952
29.640278,50.497916
29.723611,50.468881
29.806944,50.439846
29.890278,50.410811
29.973611,50.372097
30.056944,50.333384
30.140278,50.304349
30.223611,50.284992
30.306944,50.255957
30.390278,50.217243
30.473333,50.188208
30.556667,50.149494
30.64,50.120459
30.723333,50.081746
30.806667,50.043032
30.89,50.004319
30.973333,49.975284
31.056667,49.926892
31.14,49.897856
31.223333,49.868821
31.306667,49.830108
31.389722,49.791394
31.473056,49.743002
31.556389,49.713967
31.639722,49.684932
31.723056,49.646218
31.806389,49.607505
31.889722,49.57847
31.973056,49.539756
32.056389,49.510721
32.139722,49.452651
32.222778,49.423615
32.306111,49.39458
32.389444,49.355867
32.472778,49.317153
32.556111,49.288118
32.639444,49.249404
32.722778,49.220369
32.806111,49.171977
32.889444,49.142942
32.972778,49.104229
33.055833,49.075194
33.139167,49.03648
33.2225,48.997766
33.305833,48.97841
33.389167,48.949374
33.4725,48.910661
33.555833,48.871947
33.639167,48.842912
33.7225,48.804199
33.805833,48.765485
33.889167,48.73645
33.972222,48.707415
34.055556,48.67838
34.138889,48.649344
34.222222,48.610631
34.305556,48.571917
34.388889,48.542882
34.472222,48.513847
34.555556,48.465455
34.638889,48.43642
34.722222,48.407385
34.805278,48.37835
34.888611,48.339636
34.971944,48.320279
35.055278,48.281566
35.138611,48.252531
35.221944,48.213817
35.305278,48.175104
35.388611,48.155747
35.471944,48.126712
35.555278,48.087998
35.638611,48.058963
35.721667,48.039606
35.805,48.010571
35.888333,47.962179
35.971667,47.933144
36.055,47.904109
36.138333,47.884752
36.221667,47.846038
36.305,47.826682
36.388333,47.797646
36.471667,47.768611
36.554722,47.739576
36.638056,47.710541
36.721389,47.681506
36.804722,47.652471
36.888056,47.613757
36.971389,47.584722
37.054722,47.575044
37.138056,47.546008
37.221389,47.507295
37.304722,47.47826
37.388056,47.458903
37.471111,47.429868
37.554444,47.400833
37.637778,47.352441
37.721111,47.323405
37.804444,47.29437
37.887778,47.265335
37.971111,47.2363
38.054444,47.207265
38.137778,47.17823
38.221111,47.149194
38.304167,47.110481
38.3875,47.100803
38.470833,47.062089
38.554167,47.052411
38.6375,47.033054
38.720833,47.023375
38.804167,46.984662
38.8875,46.965305
38.970833,46.955627
39.054167,46.93627
39.1375,46.916913
39.220556,46.897556
39.303889,46.849164
39.387222,46.829808
39.470556,46.810451
39.553889,46.771737
39.637222,46.742702
39.720556,46.723345
39.803889,46.69431
39.887222,46.674953
39.970556,46.655597
40.053611,46.626562
40.136944,46.597526
40.220278,46.57817
40.303611,46.558813
40.386944,46.520099
40.470278,46.500743
40.553611,46.471707
40.636944,46.432994
40.720278,46.413637
40.803611,46.403959
40.886944,46.374923
40.97,46.345888
41.053333,46.326532
41.136667,46.297496
41.22,46.268461
41.303333,46.239426
41.386667,46.210391
41.47,46.171677
41.553333,46.152321
41.636667,46.142642
41.72,46.113607
41.803333,46.084572
41.886389,46.055537
41.969722,46.03618
42.053056,46.016823
42.136389,45.997466
42.219722,45.97811
42.303056,45.939396
42.386389,45.910361
42.469722,45.900683
42.553056,45.861969
42.636389,45.832934
42.719444,45.803899
42.802778,45.784542
42.886111,45.765185
42.969444,45.745828
43.052778,45.716793
43.136111,45.687758
43.219444,45.668401
43.302778,45.532904
43.386111,45.426442
43.469444,45.310301
43.552778,45.19416
43.635833,45.07802
43.719167,44.990914
43.8025,44.884452
43.885833,44.787668
43.969167,44.671527
44.0525,44.5941
44.135833,44.516673
44.219167,44.429568
44.3025,44.323105
44.385833,44.236
44.468889,44.158573
44.552222,44.071467
44.635556,43.965005
44.718889,43.897256
44.802222,43.819829
44.885556,43.732724
44.968889,43.655297
45.052222,43.587548
45.135556,43.519799
45.218889,43.452051
45.302222,43.364945
45.385278,43.316553
45.468611,43.258483
45.551944,43.200412
45.635278,43.113307
45.718611,43.045558
45.801944,42.987488
45.885278,42.929418
45.968611,42.851991
46.051944,42.79392
46.135278,42.745528
46.218333,42.697136
46.301667,42.639066
46.385,42.600352
46.468333,42.532604
46.551667,42.474533
46.635,42.426142
46.718333,42.387428
46.801667,42.348714
46.885,42.319679
46.968333,42.261609
47.051667,42.232574
47.134722,42.19386
47.218056,42.164825
47.301389,42.13579
47.384722,42.097076
47.468056,42.058363
47.551389,42.019649
47.634722,41.990614
47.718056,41.942222
47.801389,41.913187
47.884722,41.874473
47.967778,41.826082
48.051111,41.806725
48.134444,41.768011
48.217778,41.729298
48.301111,41.661549
48.384444,41.680906
48.467778,41.709941
48.551111,41.729298
48.634444,41.748654
48.717778,41.768011
48.801111,41.787368
48.884167,41.806725
48.9675,41.83576
49.050833,41.845438
49.134167,41.864795
49.2175,41.874473
49.300833,41.864795
49.384167,41.864795
49.4675,41.864795
49.550833,41.845438
49.634167,41.826082
49.7175,41.806725
49.800556,41.797046
49.883889,41.768011
49.967222,41.748654
50.050556,41.729298
50.133889,41.719619
50.217222,41.690584
50.300556,41.661549
50.383889,41.651871
50.467222,41.622835
50.550556,41.613157
50.633611,41.584122
50.716944,41.574443
50.800278,41.555087
50.883611,41.545408
50.966944,41.526052
51.050278,41.487338
51.133611,41.47766
51.216944,41.467981
51.300278,41.438946
51.383611,41.419589
51.466944,41.400232
51.55,41.380876
51.633333,41.351841
51.716667,41.332484
51.8,41.313127
51.883333,41.29377
51.966667,41.284092
52.05,41.284092
52.133333,41.255057
52.216667,41.245378
52.3,41.216343
52.383056,41.158273
52.466389,41.090524
52.549722,41.013097
52.633056,40.955027
52.716389,40.867921
52.799722,40.809851
52.883056,40.751781
52.966389,40.674353
53.049722,40.596926
53.133056,40.538856
53.216389,40.461429
53.299444,40.413037
53.382778,40.354967
53.466111,40.316253
53.549444,40.267861
53.632778,40.209791
53.716111,40.132364
53.799444,40.083972
53.882778,40.025901
53.966111,39.97751
54.049444,39.919439
54.1325,39.880726
54.215833,39.822655
54.299167,39.764585
54.3825,39.696836
54.465833,39.648444
54.549167,39.600052
54.6325,39.551661
54.715833,39.49359
54.799167,39.445198
54.8825,39.406485
54.965833,39.358093
55.048889,39.300022
55.132222,39.251631
55.215556,39.222595
55.298889,39.19356
55.382222,39.145168
55.465556,39.106455
55.548889,39.067741
55.632222,39.029028
55.715556,38.980636
55.798889,38.932244
55.881944,38.903209
55.965278,38.874173
56.048611,38.83546
56.131944,38.796746
56.215278,38.767711
56.298611,38.738676
56.381944,38.699962
56.465278,38.670927
56.548611,38.632214
56.631944,38.603179
56.715278,38.564465
56.798333,38.545108
56.881667,38.506395
56.965,38.506395
57.048333,38.487038
57.131667,38.467681
57.215,38.448324
57.298333,38.428968
57.381667,38.419289
57.465,38.399932
57.548333,38.390254
57.631389,38.351541
57.714722,38.332184
57.798056,38.312827
57.881389,38.303149
57.964722,38.283792
58.048056,38.274113
58.131389,38.245078
58.214722,38.2354
58.298056,38.216043
58.381389,38.196686
58.464722,38.167651
58.547778,38.148294
58.631111,38.128938
58.714444,38.109581
58.797778,38.090224
58.881111,38.032154
58.964444,38.032154
59.047778,38.022475
59.131111,38.012797
59.214444,38.022475
59.297778,38.022475
59.380833,38.012797
59.464167,37.99344
59.5475,37.983762
59.630833,37.964405
59.714167,37.954727
59.7975,37.945048
59.880833,37.925691
59.964167,37.925691
60.0475,37.925691
60.130833,37.945048
60.214167,37.954727
60.297222,37.974083
60.380556,37.983762
60.463889,37.99344
60.547222,38.012797
60.630556,38.032154
60.713889,38.070867
60.797222,38.090224
60.880556,38.119259
60.963889,38.138616
61.047222,38.167651
61.130278,38.196686
61.213611,38.2354
61.296944,38.264435
61.380278,38.274113
61.463611,38.303149
61.546944,38.332184
61.630278,38.341862
61.713611,38.380576
61.796944,38.390254
61.880278,38.419289
61.963611,38.419289
62.046667,38.419289
62.13,38.428968
62.213333,38.428968
62.296667,38.438646
62.38,38.428968
62.463333,38.438646
62.546667,38.428968
62.63,38.419289
62.713333,38.419289
62.796667,38.399932
62.879722,38.390254
62.963056,38.390254
63.046389,38.380576
63.129722,38.351541
63.213056,38.341862
63.296389,38.322505
63.379722,38.322505
63.463056,38.303149
63.546389,38.303149
63.629722,38.283792
63.713056,38.274113
63.796111,38.254757
63.879444,38.2354
63.962778,38.206365
64.046111,38.196686
64.129444,38.17733
64.212778,38.167651
64.296111,38.148294
64.379444,38.138616
64.462778,38.119259
64.546111,38.099902
64.629167,38.090224
64.7125,38.080546
64.795833,38.051511
64.879167,38.041832
64.9625,38.032154
65.045833,38.022475
65.129167,38.012797
65.2125,37.99344
65.295833,37.99344
65.379167,37.974083
65.4625,37.964405
65.545556,37.954727
65.628889,37.945048
65.712222,37.925691
65.795556,37.916013
65.878889,37.896656
65.962222,37.8773
66.045556,37.848264
66.128889,37.838586
66.212222,37.819229
66.295556,37.809551
66.378611,37.790194
66.461944,37.770837
66.545278,37.741802
66.628611,37.712767
66.711944,37.703089
66.795278,37.683732
66.878611,37.664375
66.961944,37.63534
67.045278,37.625661
67.128611,37.606305
67.211944,37.596626
67.295,37.57727
67.378333,37.557913
67.461667,37.528878
67.545,37.519199
67.628333,37.480486
67.711667,37.480486
67.795,37.45145
67.878333,37.432094
67.961667,37.412737
68.045,37.403059
68.128056,37.383702
68.211389,37.364345
68.294722,37.344988
68.378056,37.33531
68.461389,37.306275
68.544722,37.296596
68.628056,37.27724
68.711389,37.257883
68.794722,37.248204
68.878056,37.228848
68.961389,37.209491
69.044444,37.190134
69.127778,37.180456
69.211111,37.15142
69.294444,37.141742
69.377778,37.112707
69.461111,37.103029
69.544444,37.09335
69.627778,37.083672
69.711111,37.073993
69.794444,37.073993
69.8775,37.064315
69.960833,37.044958
70.044167,37.03528
70.1275,37.03528
70.210833,37.025601
70.294167,37.006245
70.3775,37.006245
70.460833,36.986888
70.544167,36.967531
70.6275,36.948174
70.710833,36.938496
70.793889,36.928818
70.877222,36.909461
70.960556,36.890104
71.043889,36.870747
71.127222,36.870747
71.210556,36.832034
71.293889,36.832034
71.377222,36.822355
71.460556,36.812677
71.543889,36.802999
71.626944,36.79332
71.710278,36.773963
71.793611,36.754607
71.876944,36.744928
71.960278,36.744928
72.043611,36.725571
72.126944,36.715893
72.210278,36.715893
72.293611,36.686858
72.376944,36.686858
72.460278,36.686858
72.543333,36.67718
72.626667,36.67718
72.71,36.686858
72.793333,36.706215
72.876667,36.696536
72.96,36.686858
73.043333,36.67718
73.126667,36.657823
73.21,36.638466
73.293333,36.609431
73.376667,36.599752
73.459722,36.580396
73.543056,36.570717
73.626389,36.483612
73.709722,36.396506
73.793056,36.37715
73.876389,36.348114
73.959722,36.309401
74.043056,36.270687
74.126389,36.231974
74.209722,36.212617
74.292778,36.173903
74.376111,36.13519
74.459444,36.106155
74.542778,36.086798
74.626111,36.057763
74.709444,36.038406
74.792778,36.019049
74.876111,35.990014
74.959444,35.9513
75.042778,35.941622
75.126111,35.922265
75.209167,35.89323
75.2925,35.854517
75.375833,35.825481
75.459167,35.806125
75.5425,35.796446
75.625833,35.767411
75.709167,35.748054
75.7925,35.738376
75.875833,35.738376
75.959167,35.709341
76.042222,35.689984
76.125556,35.670627
76.208889,35.670627
76.292222,35.631914
76.375556,35.622235
76.458889,35.622235
76.542222,35.5932
76.625556,35.583522
76.708889,35.564165
76.792222,35.544808
76.875556,35.544808
76.958611,35.53513
77.041944,35.515773
77.125278,35.506095
77.208611,35.496416
77.291944,35.486738
77.375278,35.486738
77.458611,35.457703
77.541944,35.457703
77.625278,35.448024
77.708611,35.438346
77.791667,35.428668
77.875,35.409311
77.958333,35.409311
78.041667,35.399632
78.125,35.389954
78.208333,35.380276
78.291667,35.370597
78.375,35.341562
78.458333,35.322205
78.541667,35.302849
78.625,35.322205
78.708056,35.331884
78.791389,35.341562
78.874722,35.331884
78.958056,35.341562
79.041389,35.331884
79.124722,35.322205
79.208056,35.312527
79.291389,35.302849
79.374722,35.29317
79.458056,35.29317
79.541111,35.29317
79.624444,35.273813
79.707778,35.264135
79.791111,35.254457
79.874444,35.254457
79.957778,35.254457
80.041111,35.254457
80.124444,35.244778
80.207778,35.225421
80.291111,35.225421
80.374444,35.225421
80.4575,35.215743
80.540833,35.215743
80.624167,35.196386
80.7075,35.196386
80.790833,35.186708
80.874167,35.186708
80.9575,35.17703
81.040833,35.167351
81.124167,35.167351
81.2075,35.167351
81.290556,35.157673
81.373889,35.157673
81.457222,35.138316
81.540556,35.147994
81.623889,35.167351
81.707222,35.167351
81.790556,35.147994
81.873889,35.128638
81.957222,35.138316
82.040556,35.157673
82.123889,35.186708
82.206944,35.186708
82.290278,35.17703
82.373611,35.17703
82.456944,35.186708
82.540278,35.186708
82.623611,35.186708
82.706944,35.186708
82.790278,35.157673
82.873611,35.167351
82.956944,35.167351
83.04,35.186708
83.123333,35.196386
83.206667,35.215743
83.29,35.225421
83.373333,35.225421
83.456667,35.225421
83.54,35.215743
83.623333,35.215743
83.706667,35.215743
83.79,35.215743
83.873056,35.215743
83.956389,35.206065
84.039722,35.196386
84.123056,35.215743
84.206389,35.215743
84.289722,35.225421
84.373056,35.2351
84.456389,35.244778
84.539722,35.264135
84.623056,35.273813
84.706389,35.283492
84.789444,35.302849
84.872778,35.322205
84.956111,35.331884
85.039444,35.341562
96.285833,34.925391
96.369167,34.915713
96.4525,34.906035
96.535833,34.906035
96.619167,34.896356
96.7025,34.896356
96.785833,34.886678
96.869167,34.867321
96.9525,34.857643
97.035556,34.847964
97.118889,34.838286
97.202222,34.828608
97.285556,34.828608
97.368889,34.828608
97.452222,34.828608
97.535556,34.809251
97.618889,34.799572
97.702222,34.780216
97.785556,34.770537
97.868611,34.770537
97.951944,34.741502
98.035278,34.741502
98.118611,34.741502
98.201944,34.731824
98.285278,34.731824
98.368611,34.722145
98.451944,34.712467
98.535278,34.69311
98.618611,34.69311
98.701944,34.683432
