time,pressure
0.0,372.467418
0.25,365.467041
0.5,358.366976
0.75,348.466954
1.0,340.466799
1.5,330.866806
2.0,316.667645
3.0,286.467205
4.0,263.467486
5.0,245.467621
6.0,224.467457
7.0,204.567725
8.0,190.467283
9.0,173.767226
10.0,160.467186
11.0,149.368011
12.0,138.468212
13.0,127.467757
14.0,116.46827
15.0,105.167785
16.0,94.568015
17.0,84.46765
17.833333,72.767448
18.833333,60.567841
19.633333,59.268034
19.75,59.367721
19.916667,58.167601
20.25,56.368389
20.5,58.067914
20.75,59.967781
21.0,61.267588
21.25,62.568364
21.666667,65.167978
22.166667,61.567618
22.666667,64.967636
23.333333,59.168346
23.666667,61.267588
24.333333,55.067614
24.666667,57.368166
25.283333,51.267879
26.25,57.068136
26.666667,52.267656
27.333333,56.168046
27.666667,52.167969
28.333333,56.168046
28.666667,51.967626
29.383333,56.267734
29.666667,53.167746
30.416667,57.968226
30.666667,54.868239
31.416667,59.268034
31.666667,56.368389
32.416667,60.768184
32.666667,57.867571
33.416667,62.067991
33.666667,59.067691
34.216667,62.167678
34.466667,63.168424
34.5,63.268111
34.75,60.667528
35.5,64.567918
35.75,61.968304
36.8,63.868171
37.05,64.768261
37.083333,65.068291
37.366667,64.267888
37.633333,65.668351
37.8,64.667606
39.5,72.468386
39.916667,66.467786
41.0,71.767671
41.25,68.967713
42.0,71.968013
42.25,69.168056
43.166667,73.567851
43.316667,71.367953
48.55,75.767748
49.25,71.467641
50.25,73.468163
51.166667,71.367953
52.183333,74.267598
53.0,71.367953
54.0,74.167911
54.083333,73.267821
54.25,74.567628
54.5,75.268343
54.666667,72.268043
55.5,74.567628
55.666667,71.868326
56.533333,74.867658
56.666667,72.268043
57.533333,74.867658
57.666667,72.468386
58.533333,75.268343
58.666667,72.868103
59.533333,75.668061
59.666667,73.267821
60.533333,75.867436
60.666667,73.367508
61.533333,76.467496
61.666667,73.967568
62.533333,76.568151
62.666667,74.167911
63.533333,76.767526
63.666667,74.368253
64.533333,76.967868
64.683333,74.167911
65.533333,76.667838
65.683333,73.867881
66.533333,76.568151
66.683333,73.867881
67.533333,76.268121
67.683333,73.567851
71.533333,75.568373
71.683333,72.667761
77.2,75.867436
77.35,73.067478
78.2,75.968091
78.333333,73.567851
79.2,75.867436
79.333333,73.468163
80.2,75.867436
80.333333,73.468163
83.2,76.767526
83.333333,74.267598
84.2,76.268121
84.333333,73.768193
85.2,76.268121
85.333333,73.768193
86.2,76.367808
86.333333,73.967568
88.2,76.268121
88.333333,73.867881
90.2,76.167466
90.333333,73.667538
95.3,73.867881
95.933333,74.767971
97.266667,74.368253
97.916667,74.867658
99.216667,75.467718
100.1,75.767748
104.3,74.368253
104.933333,75.767748
108.233333,76.167466
108.85,74.167911
110.1,76.367808
111.4,74.068223
112.55,76.167466
112.7,73.768193
113.516667,75.767748
113.666667,74.267598
114.516667,75.467718
114.666667,74.968313
115.516667,76.268121
116.366667,75.068001
116.866667,76.868181
117.533333,75.767748
118.85,76.268121
119.5,75.368031
120.833333,75.668061
121.466667,74.867658
122.116667,76.367808
122.333333,74.867658
124.05,76.767526
124.65,75.568373
125.316667,77.067556
127.083333,76.268121
129.083333,74.368253
133.066667,76.667838
133.75,76.067778
136.116667,76.568151
139.333333,76.467496
139.45,76.067778
141.3,76.067778
141.983333,74.867658
143.3,76.067778
143.933333,74.368253
145.083333,76.067778
147.083333,75.867436
149.083333,75.467718
150.333333,75.568373
151.0,75.268343
152.333333,74.867658
153.0,74.867658
154.366667,74.068223
155.033333,75.467718
156.35,74.368253
156.983333,75.467718
158.316667,75.467718
158.95,75.668061
160.283333,76.367808
160.933333,75.467718
164.2,76.167466
166.216667,76.067778
168.083333,75.968091
170.25,76.167466
172.916667,75.668061
174.35,74.668283
175.033333,75.867436
176.366667,74.068223
179.083333,76.067778
181.083333,75.968091
182.3,74.567628
182.933333,74.467941
186.333333,75.068001
186.983333,75.068001
660.083333,360.180706
660.333333,356.680033
660.583333,353.680701
660.833333,350.980431
661.083333,348.080786
661.583333,341.580781
662.083333,336.080554
663.083333,324.680381
664.083333,314.680672
667.5,282.68102
668.583333,273.480745
671.083333,248.180473
673.083333,239.180541
674.75,228.280741
674.916667,227.980711
677.083333,214.480329
680.166667,196.780495
683.833333,177.681165
684.416667,174.080805
687.583333,160.281361
689.05,155.280538
690.333333,150.481026
692.333333,143.780678
694.166667,137.481016
696.583333,129.381174
698.583333,123.181199
700.583333,117.480629
701.75,113.881237
703.083333,110.181189
704.416667,106.481142
707.083333,99.28139
708.25,95.480687
710.083333,90.081115
711.416667,85.581633
713.583333,81.881585
714.05,84.381513
715.866667,91.581265
716.5,89.681398
718.416667,83.680798
720.25,77.981195
721.0,75.481268
722.25,71.78122
724.583333,64.281438
725.25,62.280916
727.916667,54.681446
728.25,53.881043
731.083333,67.681456
733.083333,72.581623
734.083333,68.681233
735.083333,65.481558
736.083333,62.580946
737.083333,59.581613
738.083333,57.380748
739.083333,56.581313
739.7,54.981476
743.416667,71.48119
744.083333,70.380758
745.083333,67.081396
746.083333,63.781066
747.083333,62.381571
747.333333,63.181006
747.75,63.081318
749.083333,66.881053
749.333333,66.280993
749.416667,66.280993
750.416667,68.281516
751.083333,71.280848
751.933333,70.980818
752.516667,72.881653
752.933333,71.880908
753.433333,73.681088
753.933333,72.38128
754.35,73.88143
754.933333,72.180938
755.35,73.681088
755.933333,71.981563
756.25,73.28137
756.916667,71.280848
757.25,72.581623
757.916667,70.5811
758.25,71.78122
758.916667,69.881353
759.25,71.081473
759.916667,69.68101
760.366667,71.280848
760.916667,69.98104
761.416667,71.681533
761.916667,70.080728
762.416667,71.78122
762.916667,70.380758
763.7,71.280848
764.316667,71.280848
765.616667,71.280848
766.266667,71.48119
766.916667,70.380758
770.1,73.780775
770.75,74.080805
771.383333,74.680865
773.816667,74.48149
775.15,75.68161
775.783333,75.68161
776.433333,76.681388
777.716667,76.181015
778.366667,76.681388
779.666667,76.781075
780.3,77.081105
781.566667,77.981195
782.216667,77.981195
782.85,77.281448
784.166667,77.881508
784.816667,77.780853
786.133333,78.281225
786.8,78.080883
788.116667,78.980973
788.783333,78.380913
790.116667,78.781598
790.8,78.581255
793.183333,79.181315
793.9,78.680943
795.266667,79.281003
795.9,78.481568
797.016667,78.680943
797.666667,79.081628
798.333333,79.38069
799.65,79.281003
800.3,79.081628
801.6,79.181315
802.283333,78.980973
803.616667,79.081628
804.3,79.181315
805.65,79.881063
806.25,80.081405
807.616667,80.28078
808.266667,79.98075
808.9,79.081628
810.2,79.781375
810.816667,79.38069
812.133333,79.98075
812.783333,79.881063
814.116667,79.481345
815.75,79.281003
819.2,78.380913
819.85,77.780853
821.133333,77.780853
821.75,77.780853
822.416667,78.281225
823.75,77.480823
824.4,76.781075
825.666667,75.481268
826.333333,75.280925
827.65,75.181238
828.316667,75.68161
829.633333,76.781075
830.266667,76.981418
830.9,76.580733
832.25,77.681165
832.883333,77.581478
834.183333,78.680943
834.883333,78.781598
836.183333,80.88084
854.083333,102.381377
878.083333,101.181257
902.083333,78.680943
926.083333,79.281003
950.083333,77.881508
974.083333,79.38069
998.083333,79.481345
1022.083333,83.88114
1046.083333,77.981195
1070.083333,76.580733
1094.083333,75.181238
1118.083333,78.881285
1142.083333,81.281525
1166.083333,79.781375
1190.083333,78.481568
1214.083333,78.980973
1238.083333,75.880985
1262.083333,75.181238
1286.083333,80.681465
1310.083333,88.38159
1334.083333,87.380845
1358.083333,88.580965
1382.083333,88.181248
1406.083333,87.881218
1430.083333,79.781375
1454.083333,73.981118
1478.083333,77.681165
1502.083333,81.381213
1526.083333,56.781656
1598.083333,43.781646
1622.083333,101.280945
1646.083333,133.780969
1670.083333,159.081241
1694.083333,179.780407
1718.083333,195.98106
1742.083333,210.380564
1766.083333,222.780514
1790.083333,233.680314
1814.083333,242.780901
1838.083333,249.680623
1862.083333,255.080196
1886.083333,263.08035
1910.083333,267.680488
1934.083333,272.380313
1958.083333,277.380167
1982.083333,280.980527
2006.083333,271.580878
2030.083333,262.48029
2342.083333,105.080679
2366.083333,87.080815
2390.083333,95.281312
2414.083333,81.78093
2438.083333,78.080883
2462.083333,78.080883
2486.083333,76.481045
2510.083333,75.781298
2534.083333,75.481268
2558.083333,75.181238
2582.083333,75.580955
2606.083333,75.68161
2630.083333,69.08095
2654.083333,69.481636
2678.083333,69.38098
2702.083333,69.481636
2726.083333,71.280848
2750.083333,78.481568
2774.083333,69.781666
2798.083333,69.281293
2822.083333,69.181606
2846.083333,71.580878
2870.083333,73.381058
2894.083333,69.881353
2918.083333,69.281293
2942.083333,71.580878
2966.083333,70.481413
3038.083333,69.481636
3062.083333,69.581323
3086.083333,69.581323
3110.083333,69.481636
3134.083333,69.281293
3158.083333,69.281293
3182.083333,69.281293
3206.083333,69.181606
3230.083333,71.081473
3254.083333,69.68101
3278.083333,70.5811
3302.083333,72.98134
3326.083333,70.181383
3350.083333,69.881353
3374.083333,72.38128
3398.083333,70.28107
3422.083333,71.580878
3446.083333,70.980818
3470.083333,84.681543
3494.083333,80.781153
3518.083333,70.88113
3542.083333,72.780998
3566.083333,72.581623
3590.083333,71.880908
3614.083333,71.280848
3638.083333,71.78122
3662.083333,72.180938
3686.083333,64.381126
3710.083333,52.281206
3734.083333,63.981408
3758.083333,68.981263
3782.083333,69.181606
3806.083333,68.981263
3830.083333,68.381203
3854.083333,69.481636
3878.083333,69.781666
3902.083333,69.68101
3926.083333,69.781666
3950.083333,69.68101
3974.083333,69.98104
3998.083333,67.481113
4022.083333,70.080728
4046.083333,70.88113
4070.083333,70.080728
4094.083333,71.48119
4118.083333,71.18116
4142.083333,69.181606
4166.083333,68.48089
4190.083333,69.581323
4214.083333,66.681678
4238.083333,68.581546
4262.083333,69.481636
4286.083333,68.78092
4310.083333,68.48089
4334.083333,68.281516
4358.083333,68.78092
4382.083333,68.18086
4406.083333,69.98104
4430.083333,71.081473
4454.083333,70.380758
4478.083333,71.48119
4502.083333,70.980818
4526.083333,70.980818
4550.083333,69.181606
4574.083333,66.581023
4598.083333,67.5808
4622.083333,69.38098
4646.083333,67.28077
4670.083333,65.781588
4694.083333,66.481336
4718.083333,69.281293
4742.083333,69.98104
4766.083333,70.380758
4790.083333,69.98104
4814.083333,70.380758
4838.083333,69.68101
4862.083333,69.38098
4886.083333,68.281516
4910.083333,67.88083
4934.083333,65.980963
4958.083333,65.781588
4982.083333,65.581246
5006.083333,64.681156
5030.083333,64.881498
5054.083333,65.581246
5078.083333,65.881276
5102.083333,67.5808
5126.083333,68.681233
5150.083333,68.081173
5174.083333,69.38098
5198.083333,69.581323
5222.083333,69.481636
5246.083333,69.581323
5270.083333,69.781666
5294.083333,70.28107
5318.083333,69.581323
5342.083333,68.381203
5366.083333,68.381203
5390.083333,69.98104
5414.083333,71.280848
5438.083333,70.28107
5462.083333,69.481636
5486.083333,69.181606
5510.083333,69.581323
5534.083333,69.281293
5558.083333,68.78092
5582.083333,69.68101
5606.083333,69.581323
5630.083333,69.38098
5654.083333,69.68101
5678.083333,69.781666
5702.083333,69.781666
5726.083333,69.781666
5750.083333,50.981399
5798.083333,45.781201
5822.083333,71.880908
5846.083333,20.780959
5870.083333,20.780959
5894.083333,20.780959
5918.083333,20.780959
5942.083333,20.780959
5966.083333,20.780959
5990.083333,20.780959
6014.083333,20.780959
6038.083333,20.780959
6062.083333,20.780959
6086.083333,20.780959
6110.083333,20.780959
6134.083333,20.780959
6158.083333,20.780959
6182.083333,20.780959
6206.083333,20.780959
6230.083333,20.780959
6254.083333,20.780959
6278.083333,20.780959
6302.083333,20.780959
6326.083333,20.780959
6350.083333,196.28109
6391.083333,320.855483
6391.333333,318.85496
6391.583333,317.455465
6391.833333,316.15469
6392.083333,315.154913
6392.583333,312.855328
6393.083333,312.255268
6393.483333,311.55552
6393.716667,314.854883
6393.833333,314.854883
6394.75,310.854805
6395.5,309.855028
6396.083333,314.854883
6397.083333,309.954715
6398.083333,308.755563
6398.25,308.55522
6400.166667,314.955538
6402.166667,315.655285
6404.166667,316.055003
6406.25,316.255345
6409.083333,316.45472
6409.75,316.555375
6411.583333,316.655063
6413.083333,316.75475
6416.083333,316.855405
6420.583333,308.455533
6423.083333,307.65513
6425.083333,307.154758
6428.083333,306.75504
6431.583333,306.355323
6433.666667,306.15498
6435.75,306.055293
6437.75,305.955606
6439.333333,305.755263
6441.583333,305.655576
6443.25,305.655576
6446.833333,305.55492
6450.583333,305.355546
6451.916667,305.355546
6455.083333,305.355546
6458.083333,305.355546
6460.25,305.355546
6461.583333,305.355546
6464.583333,305.355546
6467.083333,305.355546
6469.916667,305.25489
6473.083333,305.155203
6474.833333,305.155203
6476.25,305.25489
6478.25,305.25489
6480.416667,305.155203
6482.083333,305.155203
6484.583333,305.155203
6486.75,305.055516
6487.833333,304.95486
6488.833333,305.055516
6489.833333,305.055516
6490.833333,305.055516
6491.833333,304.95486
6492.833333,304.855173
6493.833333,304.855173
6494.833333,304.855173
6495.833333,304.855173
6498.083333,304.755486
6500.083333,304.65483
6502.75,304.65483
6506.166667,304.555143
6508.416667,304.455456
6512.416667,304.555143
6515.3,304.65483
6516.683333,304.65483
6518.116667,304.65483
6520.25,304.555143
6522.25,304.65483
6524.25,304.555143
6526.416667,304.555143
6529.25,304.65483
6530.75,304.555143
6532.083333,304.65483
6538.083333,304.65483
6540.833333,304.455456
6543.416667,304.3548
6544.75,304.3548
6548.25,304.255113
6551.083333,304.255113
6552.5,304.255113
6554.583333,304.255113
6555.083333,304.255113
6556.583333,304.455456
6558.583333,304.455456
6560.083333,304.455456
6561.583333,304.455456
6566.333333,304.455456
6568.583333,304.455456
6571.25,304.455456
6572.083333,304.455456
6575.083333,304.3548
6578.083333,304.3548
6581.083333,304.3548
6584.083333,304.3548
6587.333333,304.3548
6589.416667,304.455456
6593.0,304.3548
6594.416667,304.3548
6596.166667,304.3548
6599.083333,304.3548
6614.083333,304.755486
6638.083333,304.555143
6662.083333,304.455456
6686.083333,304.455456
6710.083333,304.3548
6734.083333,304.3548
6758.083333,304.155426
6782.083333,304.05477
6806.083333,303.955083
6830.083333,303.855396
6854.083333,303.655053
6878.083333,303.45471
6902.083333,303.355023
6926.083333,303.15468
6950.083333,303.15468
6974.083333,302.855618
6998.083333,302.855618
7022.083333,302.855618
7046.083333,302.754963
7070.083333,302.655276
7094.083333,302.454933
7118.083333,302.454933
7142.083333,302.355246
7166.083333,302.154903
7190.083333,302.055216
7214.083333,301.955528
7238.083333,301.955528
7262.083333,301.854873
7286.083333,301.755186
7310.083333,301.755186
7334.083333,301.655498
7358.083333,301.554843
7382.083333,301.655498
7406.083333,301.854873
7430.083333,302.555588
7454.083333,302.655276
7478.083333,302.655276
7502.083333,302.754963
7526.083333,303.655053
7550.083333,304.555143
7574.083333,304.555143
7598.083333,304.65483
7622.083333,304.65483
7646.083333,304.555143
7670.083333,304.3548
7694.083333,304.65483
7718.083333,303.855396
7742.083333,303.75474
7766.083333,303.855396
7790.083333,304.155426
7814.083333,304.755486
7838.083333,266.155174
7862.083333,286.354936
7886.083333,304.65483
7910.083333,304.65483
7934.083333,304.755486
7958.083333,304.65483
7982.083333,304.555143
8006.083333,304.555143
8030.083333,302.855618
8054.083333,301.254813
8078.083333,300.855096
8102.083333,300.455378
8126.083333,300.654753
8150.083333,300.555066
8174.083333,300.255036
8198.083333,300.455378
8222.083333,300.354723
8246.083333,300.354723
8270.083333,300.555066
8294.083333,300.354723
8318.083333,300.755408
8342.083333,300.654753
8366.083333,300.755408
8390.083333,300.654753
8414.083333,300.555066
8438.083333,301.155126
8462.083333,301.254813
8486.083333,300.954783
8510.083333,301.355468
8534.083333,301.655498
8558.083333,301.955528
8582.083333,301.755186
8606.083333,301.854873
8630.083333,301.755186
8654.083333,301.655498
8678.083333,301.755186
8702.083333,302.855618
9873.083333,360.954977
9873.333333,354.254629
9873.583333,349.854834
9873.833333,344.254919
9874.083333,340.254842
9874.583333,329.1547
9875.083333,314.655508
9876.083333,297.554766
9877.083333,281.754798
9878.083333,261.555037
9879.083333,249.555772
9880.25,232.955402
9882.166667,212.354955
9882.333333,212.255268
9884.333333,192.555879
9887.083333,171.655401
9888.083333,162.855812
9889.083333,160.655914
9890.083333,152.855134
9891.083333,149.355429
9892.083333,143.455485
9893.083333,136.756105
9895.083333,127.456143
9897.083333,118.156181
9900.666667,101.456123
9902.5,92.355536
9903.25,87.655711
9905.083333,77.455659
9908.583333,56.455494
9910.416667,62.156064
9911.583333,62.456094
9911.833333,64.655992
9912.333333,60.556227
9912.833333,58.456017
9913.333333,57.555927
9913.833333,56.55615
9914.333333,55.855434
9915.333333,54.356252
9915.833333,53.55585
9916.333333,52.755447
9916.833333,51.15561
9917.333333,49.756115
9917.833333,48.255965
9918.333333,46.956157
9918.75,46.155755
9919.0,48.456307
9919.25,50.25552
9919.5,52.256042
9919.75,54.255597
9919.916667,55.256342
9920.583333,49.756115
9920.916667,52.556072
9921.583333,49.056367
9922.0,52.256042
9922.583333,49.056367
9923.0,52.256042
9923.583333,49.255742
9924.0,52.755447
9924.583333,49.955489
9924.966667,50.356175
9925.583333,49.756115
9927.166667,53.055477
9928.916667,50.155832
9929.583333,53.055477
9930.966667,51.256265
9931.583333,50.056145
9932.583333,51.45564
9932.916667,50.956235
9934.416667,49.255742
9934.783333,48.655682
9936.25,49.255742
9936.966667,49.355429
9938.433333,47.155532
9938.733333,47.355875
9940.75,59.255452
9941.55,57.855957
9942.25,54.056222
9942.633333,57.15621
9942.75,55.95609
9943.283333,52.856102
9943.666667,55.855434
9944.283333,51.75567
9944.683333,55.155687
9945.083333,52.156355
9945.75,57.855957
9946.216667,53.655537
9948.25,68.255384
9948.75,62.555782
9949.25,67.956322
9949.75,61.556004
9950.25,67.656292
9950.716667,61.156287
9951.25,67.255607
9951.716667,60.755602
9952.25,68.155697
9952.683333,61.355662
9953.266667,66.255829
9953.683333,61.955722
9954.266667,67.755979
9954.666667,62.355439
9955.666667,71.355371
9956.083333,66.655547
9956.666667,71.355371
9957.083333,66.655547
9958.5,69.955877
9959.916667,73.856267
9960.333333,72.656147
9960.666667,75.255761
9961.083333,70.756279
9961.616667,74.455359
9962.083333,69.856189
9962.616667,72.855521
9963.016667,69.455504
9964.383333,76.356194
9964.85,71.155997
9965.383333,73.856267
9965.85,69.055787
9966.383333,72.455804
9966.683333,69.556159
9967.083333,72.056087
9967.5,70.355594
9968.083333,74.055641
9968.5,69.455504
9969.083333,74.055641
9969.5,69.556159
9970.083333,74.055641
9970.5,69.556159
9971.083333,74.156297
9971.5,69.556159
9972.083333,74.055641
9972.5,69.556159
9973.083333,74.156297
9973.5,69.556159
9974.083333,74.055641
9974.5,69.556159
9975.083333,73.955954
9975.5,69.655847
9976.083333,74.156297
9976.5,69.655847
9977.083333,74.055641
9977.5,69.655847
9978.083333,74.055641
9978.5,69.655847
9979.083333,74.055641
9979.5,69.655847
9983.083333,73.755611
9983.5,72.455804
9984.083333,76.356194
9984.5,71.855744
9985.083333,76.056164
9985.466667,72.155774
9986.083333,76.755911
9986.416667,72.356117
9987.083333,76.455881
9987.416667,72.356117
9991.416667,72.855521
9992.25,75.855821
9994.466667,74.955731
9995.25,76.956254
9996.0,75.156074
9998.25,74.655701
9998.583333,74.455359
10001.25,74.255984
10001.583333,73.355894
10002.333333,75.456104
10003.083333,72.956177
10004.166667,74.655701
10007.116667,76.255539
10007.5,75.855821
10008.2,76.555569
10008.583333,74.755389
10008.95,77.755689
10009.283333,74.156297
10009.95,78.055719
10010.283333,74.455359
10010.983333,77.855376
10011.283333,74.055641
10013.083333,75.555791
10014.266667,76.555569
10014.666667,74.156297
10016.333333,77.555346
10020.416667,75.355449
10022.05,80.755989
10022.833333,80.555646
10023.083333,81.855454
10023.383333,77.956031
10025.083333,82.055796
10025.383333,78.655779
10027.083333,82.755544
10027.4,79.055496
10032.166667,79.855899
10033.916667,82.055796
10034.233333,79.255839
10034.916667,81.755766
