time,pressure
0.0,94.533787
0.003056,94.543466
1.450556,94.804782
1.451944,94.81446
1.485278,93.604662
1.518611,92.249688
1.551944,91.068925
1.585278,89.975267
1.618611,88.939679
1.651944,88.020233
1.685,87.129821
1.718333,86.307158
1.751667,85.407068
1.785,84.681189
1.798889,84.487621
1.8,84.390837
2.799722,73.957536
3.799444,67.879509
4.799167,62.575753
5.798889,59.691593
6.798611,57.175213
7.798333,55.055646
8.798056,53.478069
9.797778,52.26827
10.797222,51.290753
11.796944,50.293879
12.796667,49.055046
13.796389,47.912996
14.796111,47.100012
15.795833,46.50963
16.795556,45.996675
17.795278,45.599862
18.795,45.261118
19.794722,44.990123
20.794444,44.748163
21.793889,44.525561
21.926667,44.496525
21.926944,44.496525
21.927222,44.496525
21.9275,44.496525
21.927778,44.496525
21.928056,44.496525
21.928333,44.496525
21.928611,44.496525
21.928889,44.496525
21.929167,44.496525
22.928889,44.331993
23.928611,44.148103
24.928333,43.935179
25.928056,43.75129
26.927778,43.606114
27.9275,43.489973
27.979444,43.480295
28.978889,42.899592
29.978611,42.580205
30.978056,42.328567
31.977778,42.154356
32.9775,41.970466
33.977222,41.76722
34.976944,41.612366
35.976667,41.486547
36.976389,41.380085
37.976111,41.273622
38.975833,41.186517
39.975556,41.157482
40.975,41.118768
41.974722,41.05102
42.974444,40.973592
43.974167,40.86713
44.973889,40.760668
45.973611,40.673562
46.973333,40.605814
47.973056,40.538065
48.972778,40.489673
49.9725,40.421924
50.972222,40.383211
51.971667,40.315462
52.971389,40.26707
53.971111,40.199322
54.970833,40.170286
55.970556,40.141251
56.970278,40.15093
57.97,40.141251
58.969722,40.112216
59.969444,40.083181
60.969167,39.986397
61.968611,39.90897
62.968333,39.860578
63.968056,39.812186
64.967778,39.792829
65.9675,39.763794
66.967222,39.696045
67.966944,39.676689
68.966667,39.657332
69.966389,39.647653
70.966111,39.618618
71.965833,39.637975
72.965278,39.637975
73.965,39.637975
74.964722,39.715402
75.964444,39.60894
76.964167,39.512156
77.963889,39.463764
78.963611,39.434729
79.963333,39.415372
80.963056,39.415372
81.962778,39.405694
82.962222,39.396015
83.961944,39.36698
84.961667,39.425051
85.961389,39.483121
86.961111,39.463764
87.960833,39.434729
88.960556,39.36698
89.960278,39.328267
90.96,39.328267
91.959722,39.318588
92.959444,39.289553
93.959167,39.260518
94.958611,39.241161
95.958333,39.202448
96.199444,39.202448
98.198889,39.279875
100.198333,39.328267
102.197778,39.241161
104.196944,39.163734
106.196389,39.202448
108.195833,39.202448
110.195278,39.154056
112.194722,39.105664
114.194167,39.086307
116.193333,39.06695
118.192778,39.105664
120.192222,39.163734
122.191667,39.134699
124.191111,39.018558
126.190278,39.018558
128.189722,39.047593
130.189167,39.00888
132.188611,38.95081
134.188056,38.931453
136.187222,38.921774
138.186667,38.960488
140.186111,38.95081
142.185278,38.786277
144.184722,38.737885
146.184167,38.737885
148.183611,38.699171
150.182778,38.689493
152.182222,38.602388
154.181667,38.563674
156.181111,38.534639
158.180278,38.486247
160.179722,38.505604
162.179167,38.563674
164.178333,38.602388
166.177778,38.524961
168.177222,38.515282
170.176667,38.495925
172.175833,38.46689
174.175278,38.524961
176.174722,38.524961
178.174167,38.399141
180.173333,38.370106
182.172778,38.428177
184.172222,38.437855
186.171667,38.331393
188.170833,38.302358
190.170278,38.331393
192.169722,38.341071
194.169167,38.234609
196.168333,38.176539
198.167778,38.215252
200.167222,38.244287
202.166667,38.195895
204.165833,38.186217
206.165278,38.137825
208.164722,38.10879
210.164167,38.079755
212.163333,38.137825
214.162778,38.118468
216.162222,37.915222
218.161667,37.86683
220.160833,37.789403
222.160278,37.789403
224.159722,37.876509
226.159167,37.905544
228.158333,37.818438
230.157778,37.741011
232.157222,37.779725
234.156667,37.80876
236.155833,37.741011
238.155278,37.673262
240.154722,37.653906
242.154167,37.634549
244.153611,37.644227
246.152778,37.702298
248.152222,37.673262
250.151667,37.624871
252.151111,37.586157
254.150278,37.5668
256.149722,37.479695
258.149167,37.460338
260.148611,37.440981
262.148056,37.460338
264.147222,37.411946
266.146667,37.353876
268.146111,37.324841
270.145556,37.247413
272.145,37.286127
274.144167,37.276449
276.143611,37.189343
278.143056,37.160308
280.1425,37.218378
282.141667,37.2087
283.631111,37.140951
283.631389,37.140951
283.631667,37.140951
285.631111,37.111916
287.630278,37.102238
289.629722,37.082881
291.629167,37.131273
293.628611,37.169986
295.628056,37.15063
297.627222,37.121594
299.626667,37.102238
301.626111,37.082881
303.625556,37.102238
305.625,37.169986
307.624167,37.199021
309.623611,37.121594
311.623056,37.082881
313.6225,37.160308
315.621944,37.179665
317.621111,37.111916
319.620556,37.044167
321.62,37.102238
323.619444,37.131273
325.618611,37.034489
327.618056,36.986097
329.6175,37.034489
331.616944,36.986097
333.616389,36.860278
335.615556,36.773172
337.615,36.773172
339.614444,36.734459
341.613889,36.705424
343.613333,36.647353
345.6125,36.618318
347.611944,36.618318
349.611389,36.637675
351.610833,36.657032
353.61,36.66671
355.609444,36.66671
357.608889,36.66671
359.608333,36.637675
361.607778,36.627997
363.606944,36.618318
365.606389,36.66671
367.605833,36.657032
369.605278,36.618318
371.604722,36.589283
373.603889,36.560248
375.603333,36.531213
377.602778,36.511856
379.602222,36.482821
381.601667,36.463464
383.600833,36.415072
385.600278,36.444107
387.599722,36.502178
389.599167,36.492499
391.598611,36.473142
393.597778,36.502178
395.597222,36.463464
397.596667,36.42475
399.596111,36.386037
401.595556,36.42475
403.594722,36.463464
405.594167,36.42475
407.593611,36.434429
409.593056,36.42475
411.5925,36.415072
413.591667,36.434429
415.591111,36.434429
417.590556,36.42475
419.59,36.444107
421.589444,36.42475
423.588889,36.42475
425.588056,36.42475
427.5875,36.395715
429.586944,36.376359
431.586389,36.376359
433.585833,36.298931
435.585,36.30861
437.584444,36.269896
439.583889,36.269896
441.583333,36.298931
443.582778,36.289253
445.581944,36.298931
447.581389,36.318288
449.580833,36.298931
451.580278,36.30861
453.579444,36.260218
455.578889,36.240861
457.578333,36.221504
459.577778,36.182791
461.577222,36.182791
463.576389,36.182791
465.575833,36.163434
467.575278,36.144077
469.574722,36.12472
471.574167,36.12472
473.573333,36.095685
475.572778,36.076329
477.572222,36.086007
479.571667,36.105364
481.571111,36.095685
483.570278,36.153756
485.569722,36.182791
487.569167,36.144077
489.568611,36.115042
491.567778,36.095685
493.567222,36.047293
495.566667,36.027937
497.566111,36.018258
499.565556,36.018258
501.564722,36.00858
503.564167,36.047293
505.563611,36.076329
507.563056,36.076329
509.5625,36.086007
511.561667,36.095685
513.561111,36.095685
515.560556,36.095685
517.56,36.076329
519.559444,36.06665
521.558611,36.056972
523.558056,36.047293
525.5575,36.037615
527.556944,36.037615
529.556389,36.027937
531.555833,36.037615
533.555,36.037615
535.554444,36.018258
537.553889,36.06665
539.553333,36.105364
541.552778,36.06665
543.552222,36.037615
545.551389,36.00858
545.739167,35.998901
545.739444,35.998901
545.739722,35.998901
545.74,35.998901
545.740278,35.998901
545.740556,35.998901
545.740833,35.998901
545.741111,35.998901
545.741389,35.998901
545.741667,35.998901
545.741944,35.998901
545.742222,35.998901
545.7425,36.086007
545.742778,36.086007
545.743056,36.086007
545.743333,36.086007
545.743611,36.086007
545.743889,36.086007
545.744167,36.086007
545.744444,36.086007
545.744722,36.086007
545.745,36.086007
545.745278,36.086007
545.745556,36.086007
547.745,36.076329
549.744444,36.056972
551.743889,36.027937
553.743056,36.00858
555.7425,35.989223
557.741944,35.95051
559.741389,35.95051
561.740833,35.95051
563.740278,35.95051
565.739444,36.018258
567.738889,35.998901
569.738333,35.940831
571.737778,35.921474
573.737222,35.911796
575.736389,35.902118
577.735833,35.902118
579.735278,35.882761
581.734722,35.873082
583.734167,35.853726
585.733611,35.834369
587.732778,35.834369
589.732222,35.82469
591.731667,35.815012
593.731111,35.805334
595.730556,35.82469
597.73,35.873082
599.729167,35.82469
601.728611,35.785977
603.728056,35.805334
605.7275,35.785977
607.726944,35.785977
609.726111,35.795655
611.725556,35.795655
613.725,35.785977
615.724444,35.776299
617.723889,35.747263
619.519167,35.727907
619.519444,35.727907
621.518611,35.718228
623.518056,35.718228
625.5175,35.70855
627.516944,35.698871
629.516389,35.689193
631.515556,35.689193
633.515,35.70855
635.514444,35.718228
637.513889,35.669836
639.513333,35.669836
641.5125,35.65048
643.511944,35.631123
645.511389,35.640801
647.510833,35.660158
649.510278,35.669836
651.509444,35.669836
653.508889,35.660158
655.508333,35.669836
657.507778,35.679515
659.507222,35.679515
661.506667,35.65048
663.505833,35.640801
665.505278,35.621444
667.504722,35.592409
669.504167,35.573052
671.503333,35.611766
673.502778,35.640801
675.502222,35.611766
677.501667,35.553696
679.501111,35.534339
681.500278,35.52466
683.499722,35.505304
685.499167,35.46659
687.498611,35.456912
689.498056,35.456912
691.497222,35.437555
693.496667,35.437555
695.496111,35.427877
697.495556,35.418198
699.494722,35.418198
701.494167,35.418198
703.493611,35.40852
705.493056,35.40852
707.4925,35.40852
709.491667,35.40852
711.491111,35.418198
713.490556,35.456912
715.49,35.456912
717.489167,35.389163
719.488611,35.369806
721.488056,35.360128
723.4875,35.35045
725.486667,35.321414
727.486111,35.321414
729.485556,35.35045
731.485,35.321414
733.484444,35.311736
735.483611,35.302058
737.483056,35.292379
739.4825,35.273022
741.481944,35.263344
743.481111,35.263344
745.480556,35.253666
747.48,35.243987
749.479444,35.253666
751.478889,35.253666
753.478056,35.311736
755.4775,35.331093
757.476944,35.243987
759.476389,35.205274
761.475833,35.205274
763.475,35.185917
765.474444,35.16656
767.473889,35.156882
769.473333,35.16656
771.472778,35.156882
773.471944,35.147203
775.471389,35.127847
777.470833,35.118168
779.470278,35.118168
781.469722,35.10849
783.468889,35.089133
785.468333,35.079455
787.467778,35.079455
789.467222,35.040741
791.466667,35.031063
793.466111,35.011706
795.465278,35.021384
797.464722,35.002028
799.464167,35.002028
801.463611,34.982671
803.463056,35.002028
805.462222,35.002028
807.461667,34.992349
809.461111,34.972992
811.460556,34.963314
813.46,34.953636
815.459444,34.953636
817.458611,34.934279
819.458056,34.943957
821.4575,34.963314
823.456944,34.953636
825.456389,34.876209
827.455556,34.827817
829.455,34.80846
831.454444,34.798781
833.453889,34.779425
835.453333,34.760068
837.452778,34.740711
839.451944,34.731033
841.451389,34.731033
843.450833,34.75039
845.450278,34.760068
847.449722,34.75039
849.449167,34.711676
851.448333,34.692319
853.447778,34.682641
855.447222,34.682641
857.446667,34.663284
859.446111,34.682641
861.445278,34.711676
863.444722,34.701998
865.444167,34.62457
867.443611,34.595535
869.443056,34.5665
871.442222,34.5665
873.441667,34.537465
875.441111,34.527787
877.440556,34.518108
879.44,34.527787
881.439444,34.721354
883.438611,34.972992
885.438056,35.069776
887.4375,35.137525
889.436944,35.185917
891.436389,35.214952
893.435556,35.234309
895.435,35.253666
897.434444,35.273022
899.433889,35.292379
901.433333,35.398841
903.4325,35.447233
905.431944,35.379485
907.431389,35.331093
909.430833,35.331093
911.430278,35.331093
913.429722,35.321414
915.428889,35.311736
917.428333,35.321414
919.427778,35.321414
921.427222,35.331093
923.426667,35.331093
925.425833,35.331093
927.425278,35.311736
929.424722,35.302058
931.424167,35.292379
933.423611,35.292379
933.508056,35.292379
933.508333,35.292379
935.5075,35.282701
937.506944,35.292379
939.506389,35.292379
941.505833,35.379485
943.505,35.418198
945.504444,35.369806
947.503889,35.331093
949.503333,35.321414
951.502778,35.321414
953.501944,35.311736
955.501389,35.311736
957.500833,35.311736
959.500278,35.321414
961.499722,35.331093
963.498889,35.35045
965.498333,35.331093
967.497778,35.321414
969.497222,35.321414
971.496389,35.311736
973.495833,35.311736
975.495278,35.282701
977.494722,35.273022
979.493889,35.243987
981.493333,35.282701
983.492778,35.311736
985.492222,35.282701
987.491667,35.22463
989.490833,35.22463
991.490278,35.253666
993.489722,35.263344
995.489167,35.253666
997.488333,35.22463
999.487778,35.234309
1001.487222,35.234309
1003.486667,35.243987
1005.486111,35.263344
1007.485278,35.243987
1009.484722,35.263344
1011.484167,35.273022
1013.483611,35.273022
1015.483056,35.282701
1017.482222,35.282701
1019.481667,35.273022
1021.481111,35.321414
1023.480556,35.389163
1025.48,35.369806
1027.479167,35.321414
1029.478611,35.321414
1031.478056,35.321414
1033.4775,35.311736
1035.476944,35.311736
1037.476111,35.302058
1039.475556,35.302058
1041.475,35.311736
1043.474444,35.302058
1045.473889,35.292379
1047.473056,35.282701
1049.4725,35.282701
1051.471944,35.282701
1053.471389,35.273022
1055.470556,35.282701
1057.47,35.282701
1059.469444,35.292379
1061.468889,35.302058
1063.468333,35.360128
1065.4675,35.331093
1067.466944,35.282701
1069.466389,35.263344
1071.465833,35.282701
1073.465278,35.282701
1075.464444,35.282701
1077.463889,35.292379
1079.463333,35.311736
1081.462778,35.292379
1083.462222,35.282701
1085.461389,35.273022
1087.460833,35.273022
1089.460278,35.292379
1091.459444,35.302058
1093.458889,35.302058
1095.458333,35.311736
1097.457778,35.302058
1099.456944,35.292379
1101.456389,35.273022
1103.455833,35.321414
1105.455,35.331093
1107.454444,35.253666
1109.453889,35.214952
1111.453333,35.234309
1113.4525,35.243987
1115.451944,35.253666
1117.451389,35.273022
1119.450833,35.282701
1121.45,35.292379
1123.449444,35.302058
1125.448889,35.389163
1127.448333,35.418198
1129.447778,35.369806
1131.446944,35.311736
1133.446389,35.302058
1135.445833,35.292379
1137.445278,35.292379
1139.444722,35.292379
1141.443889,35.292379
1143.443333,35.292379
1145.442778,35.292379
1147.442222,35.302058
1149.441667,35.292379
1151.441111,35.292379
1153.440278,35.35045
1155.439722,35.379485
1157.439167,35.302058
1159.438611,35.234309
1161.438056,35.205274
1163.437222,35.205274
1165.436667,35.195595
1167.436111,35.195595
1169.435556,35.195595
1171.435,35.195595
1173.434167,35.195595
1175.433611,35.195595
1177.433056,35.176239
1179.4325,35.16656
1181.431667,35.16656
1183.431111,35.156882
1185.430556,35.147203
1187.43,35.147203
1189.429444,35.137525
1191.428611,35.147203
1193.428056,35.205274
1195.4275,35.282701
1197.426944,35.243987
1199.426389,35.147203
1201.425556,35.098811
1203.425,35.069776
1205.424444,35.05042
1207.423889,35.031063
1209.423056,35.021384
1211.4225,35.011706
1213.421944,35.011706
1215.421389,35.011706
1217.420833,35.021384
1219.420278,35.031063
1221.419444,35.031063
1223.418889,35.040741
1225.418333,35.040741
1227.417778,35.040741
1229.417222,35.031063
1231.416389,35.011706
1233.415833,35.021384
1235.415278,35.060098
1237.414722,35.031063
1239.414167,34.953636
1241.413611,34.905244
1243.412778,34.895565
1245.412222,34.885887
1247.411667,34.876209
1249.411111,34.895565
1251.410556,34.895565
1253.409722,34.895565
1255.409167,35.069776
1257.408611,35.22463
1259.408056,35.321414
1261.4075,35.398841
1263.406944,35.437555
1265.406111,35.485947
1267.405556,35.495625
1269.405,35.534339
1271.404444,35.544017
1273.403889,35.573052
1275.403056,35.621444
1277.4025,35.669836
1279.401944,35.621444
1281.401389,35.602088
1283.400833,35.592409
1285.4,35.592409
1287.399444,35.592409
1289.398889,35.573052
1291.398333,35.573052
1293.397778,35.563374
1295.397222,35.553696
1297.396389,35.573052
1299.395833,35.582731
1301.395278,35.592409
1303.394722,35.602088
1305.394167,35.611766
1307.393333,35.631123
1309.392778,35.640801
1311.392222,35.65048
1313.391667,35.65048
1315.391111,35.660158
1317.390278,35.660158
1319.389722,35.669836
1321.389167,35.679515
1323.388611,35.785977
1325.388056,35.863404
1327.387222,35.737585
1329.386667,35.660158
1331.386111,35.631123
1333.385556,35.621444
1335.385,35.621444
1337.384167,35.611766
1339.383611,35.631123
1341.383056,35.660158
1343.3825,35.669836
1345.381944,35.669836
1347.381111,35.660158
1349.380556,35.679515
1351.38,35.679515
1353.379444,35.679515
1355.378889,35.689193
1357.378056,35.698871
1359.3775,35.70855
1361.376944,35.70855
1363.376389,35.776299
1365.375833,35.776299
1367.375,35.698871
1369.374444,35.660158
1371.373889,35.640801
1373.373333,35.640801
1375.372778,35.621444
1377.371944,35.611766
1379.371389,35.611766
1381.370833,35.592409
1383.370278,35.573052
1385.369444,35.563374
1387.368889,35.573052
1389.368333,35.582731
1391.367778,35.602088
1393.367222,35.621444
1395.366667,35.65048
1397.365833,35.660158
1399.365278,35.669836
1401.364722,35.70855
1403.364167,35.785977
1405.363611,35.805334
1407.362778,35.727907
1409.362222,35.660158
1411.361667,35.611766
1413.361111,35.602088
1415.360556,35.582731
1417.359722,35.592409
1419.359167,35.563374
1421.358611,35.534339
1423.035833,35.514982
1423.036111,35.514982
1425.035556,35.505304
1427.035,35.52466
1429.034444,35.534339
1431.033611,35.563374
1433.033056,35.582731
1435.0325,35.602088
1437.031944,35.602088
1439.031389,35.631123
1441.030556,35.640801
1443.03,35.698871
1445.029444,35.70855
1447.028889,35.65048
1449.028333,35.592409
1451.0275,35.592409
1453.026944,35.602088
1455.026389,35.602088
1457.025833,35.582731
1459.025278,35.563374
1461.024444,35.534339
1463.023889,35.52466
1465.023333,35.534339
1467.022778,35.534339
1469.022222,35.553696
1471.021389,35.563374
1473.020833,35.582731
1475.020278,35.582731
1477.019722,35.592409
1479.019167,35.602088
1481.018333,35.631123
1483.017778,35.689193
1485.017222,35.737585
1487.016667,35.70855
1489.016111,35.65048
1491.015278,35.640801
1493.014722,35.640801
1495.014167,35.592409
1497.013611,35.534339
1499.013056,35.505304
1501.012222,35.476269
1503.011667,35.437555
1505.011111,35.447233
1507.010556,35.427877
1509.01,35.427877
1511.009167,35.427877
1513.008611,35.427877
1515.008056,35.418198
1517.0075,35.40852
1519.006944,35.398841
1521.006389,35.379485
1523.005556,35.40852
1525.005,35.456912
1527.004444,35.427877
1529.003889,35.379485
1531.003333,35.360128
1533.0025,35.331093
1535.001944,35.302058
1537.001389,35.282701
1539.000833,35.273022
1541.000278,35.263344
1542.999722,35.263344
1544.998889,35.282701
1546.998333,35.292379
1548.997778,35.302058
1550.997222,35.302058
1552.996667,35.311736
1554.995833,35.311736
1556.995278,35.302058
1558.994722,35.311736
1560.994167,35.302058
1562.993611,35.292379
1564.993056,35.311736
1566.992222,35.302058
1568.991667,35.22463
1570.991111,35.185917
1572.990556,35.16656
1574.99,35.147203
1576.989444,35.156882
1578.988611,35.16656
1580.988056,35.156882
1582.9875,35.127847
1584.986944,35.127847
1586.986389,35.127847
1588.985556,35.118168
1590.985,35.10849
1592.984444,35.098811
1594.983889,35.060098
1596.983333,35.040741
1598.982778,35.031063
1600.981944,35.021384
1602.981389,35.021384
1604.980833,35.060098
1606.980278,35.069776
1608.979722,35.002028
1610.978889,34.982671
1612.978333,34.972992
1614.977778,34.963314
1616.977222,34.982671
1618.976667,35.002028
1620.975833,35.002028
1622.975278,34.982671
1624.974722,34.982671
1626.974167,35.002028
1628.973611,35.011706
1630.973056,35.011706
1632.972222,35.011706
1634.971667,35.011706
1636.971111,35.002028
1638.970556,34.992349
1640.97,35.031063
1642.969444,35.060098
1644.968611,35.002028
1646.968056,34.963314
1648.9675,34.953636
1650.966944,34.9246
1652.966389,34.934279
1654.965556,34.914922
1656.965,34.895565
1658.964444,34.895565
1660.963889,34.876209
1662.963333,34.885887
1664.9625,34.895565
1666.961944,34.885887
1668.961389,34.895565
1670.960833,34.895565
1672.960278,34.885887
1674.959444,34.885887
1676.958889,34.885887
1678.958333,34.876209
1680.957778,34.914922
1682.957222,34.943957
1684.956389,34.876209
1686.955833,34.80846
1688.955278,34.798781
1690.954722,34.798781
1692.954167,34.789103
1694.953333,34.789103
1696.952778,34.779425
1698.952222,34.769746
1700.951667,34.760068
1702.950833,34.769746
1704.950278,34.769746
1706.949722,34.779425
1708.949167,34.769746
1710.948333,34.760068
