time,pressure
0.0,180.299061
0.095556,180.231312
0.211667,180.18292
0.388333,180.153885
0.536389,180.095814
0.664167,180.492628
0.746111,181.450789
0.873889,183.115471
1.015,184.954365
1.145,184.760797
1.253889,184.422054
1.365,180.599091
1.484444,176.950339
1.619444,173.22416
1.900278,166.691248
2.026389,164.174867
2.164722,161.571381
2.288056,159.403423
2.462222,156.635404
2.572222,155.009435
2.704167,153.218933
2.837778,151.428432
2.966667,149.676643
3.085,148.118423
3.240833,146.134354
3.413056,143.966395
3.558056,142.127501
3.638889,141.208055
3.774444,139.669191
3.900556,138.227111
4.039444,136.79471
4.166389,135.59459
4.237222,134.829998
4.387222,133.445988
4.514722,132.255547
4.577778,132.255547
4.645278,131.190924
4.773056,130.116623
4.907778,129.081036
5.043333,128.016413
5.1725,127.116323
5.352778,125.829097
5.536667,124.638656
5.686111,123.728887
5.851944,122.75137
5.991667,121.967421
6.093056,121.415753
6.234722,120.612447
6.413056,119.673643
6.559722,118.947764
6.677778,118.376739
6.797222,117.815393
6.93,117.186298
7.058056,116.663665
7.191389,116.03457
7.403889,115.182872
7.520556,114.718309
7.623611,114.302138
7.758333,113.798862
7.873611,113.39237
8.007778,112.889094
8.145833,112.414853
8.269444,111.979325
8.464444,111.340552
8.608611,111.340552
8.615,110.817919
8.76,110.334
8.911111,109.917829
9.040278,109.511337
9.174444,109.095166
9.276667,108.824171
9.448889,108.340252
9.584444,107.982151
9.724444,107.662765
9.838333,107.372413
9.9775,106.994956
10.1225,106.646534
10.239444,106.404574
10.433333,105.940012
10.577778,105.639982
10.686667,105.436736
10.824722,105.146384
10.950833,104.885068
11.091667,104.594716
11.223333,104.304364
11.393611,103.984978
11.504167,103.743018
11.632222,103.442988
11.773889,103.181671
11.894167,102.930033
12.016667,102.668717
12.156389,102.397722
12.360833,101.971873
12.501389,101.6912
12.624167,101.6912
12.624444,101.6912
12.635556,101.468597
12.778333,101.187924
12.916389,100.90725
13.0225,100.713683
13.143611,100.471723
13.273333,100.239442
13.461667,99.871663
13.599444,99.620025
13.696389,99.465171
13.821944,99.174819
13.948056,98.787684
14.075833,98.226337
14.205833,97.60692
14.385,96.755222
14.531944,96.068057
14.685556,95.419605
14.853611,94.722761
14.995556,94.142058
15.113056,93.677495
15.243889,93.203254
15.432222,92.496732
15.583056,91.916029
15.690556,91.509536
15.828611,91.00626
15.962778,90.541698
16.096111,90.077135
16.226944,89.651286
16.414722,88.993156
16.547222,88.586664
16.638889,88.586664
16.7,88.122101
16.825556,87.764001
16.934722,87.396222
17.080278,86.980051
17.220556,86.573559
17.4,86.079961
17.529722,85.692826
17.659722,85.325047
17.774722,85.025017
17.908333,84.637882
18.029722,84.260424
18.163056,83.853932
18.376667,83.253872
18.513611,82.857058
18.631389,82.557028
18.768889,82.208606
18.9,81.869863
19.0325,81.579511
19.1825,81.260124
19.350833,80.882667
19.529167,80.553602
19.664722,80.263251
19.799167,79.953542
19.957222,79.643834
20.1,79.401874
20.221389,79.159914
20.4075,78.821171
20.524722,78.685673
20.658611,78.685673
20.665,78.434035
20.789167,78.269503
20.918056,78.095292
21.044167,77.892046
21.175833,77.717835
21.355278,77.485553
21.514444,77.272629
21.631667,77.127453
21.7625,76.972599
21.901111,76.808066
22.052778,76.614499
22.183611,76.459644
22.359722,76.30479
22.500556,76.130579
22.647778,76.00476
22.772778,75.859584
22.899444,75.753122
23.033889,75.636981
23.174722,75.511162
23.3575,75.395022
23.498333,75.269203
23.654167,75.153062
23.779444,75.075635
23.908889,74.949816
24.055,74.823997
24.179444,74.523967
24.353056,74.117475
24.53,73.759374
24.659444,73.498058
24.694167,73.498058
24.694444,73.498058
24.8025,73.207706
24.927778,72.956068
25.051944,72.743144
25.197778,72.491506
25.385,72.210832
25.514167,71.978551
25.639167,71.823697
25.896389,71.436561
26.017222,71.330099
26.200556,71.117175
26.366944,70.913928
26.513333,70.788109
26.661667,70.613898
26.780278,70.517115
26.908889,70.371939
27.038889,70.275155
27.153889,70.178371
27.373889,69.936411
27.506944,69.791236
27.641944,69.655738
27.758611,69.549276
27.927222,69.4041
28.05,69.316995
28.183333,69.191176
28.3725,69.036321
28.504722,68.910502
28.65,68.813718
28.708333,68.813718
28.7775,68.687899
28.917778,68.56208
29.058611,68.397548
29.185278,68.300764
29.350833,68.165267
29.471667,68.068483
29.612778,67.952342
29.775833,67.807166
29.895556,67.749096
30.056667,67.632955
30.1775,67.565207
30.368056,67.458744
30.531667,67.36196
30.665,67.323247
30.764444,67.226463
30.895,67.023217
31.028056,66.849006
31.163056,66.70383
31.2825,66.548976
31.462778,66.316695
31.595833,66.171519
31.728056,66.026343
31.860278,65.842454
31.984167,65.629529
32.111667,65.426283
32.244167,65.223037
32.416667,65.019791
32.573056,64.806866
32.699722,64.66169
32.840556,64.497158
32.9725,64.332625
33.093333,64.216485
33.269722,64.032595
33.424444,63.848706
33.551944,63.70353
33.669444,63.587389
33.789444,63.432535
33.925556,63.306716
34.057778,63.180897
34.181944,63.074435
34.385833,62.909902
34.524722,62.813118
34.650278,62.726013
34.793333,62.619551
34.924722,62.513088
35.066389,62.416305
35.179444,62.387269
35.360833,62.251772
35.493889,62.14531
35.644444,62.029169
35.769722,61.922707
35.891667,61.816245
36.033056,61.758174
36.176944,61.642034
36.354167,61.496858
36.516944,61.429109
36.655278,61.30329
36.805278,61.225863
36.936389,61.148436
37.073611,61.051652
37.216111,60.94519
37.4425,60.838727
37.58,60.751622
37.701111,60.674195
37.830833,60.616125
37.965278,60.548376
38.116667,60.470949
38.241944,60.441914
38.368056,60.354808
38.471944,60.335451
38.601667,60.258024
38.709444,60.228989
38.830833,60.190275
38.967778,60.16124
39.115278,60.112848
39.254722,60.083813
39.425833,60.016065
39.558611,59.987029
39.719167,59.928959
39.831111,59.909602
39.969722,59.890245
40.108611,59.812818
40.237778,59.812818
40.421389,59.783783
40.583889,59.80314
40.713889,59.774105
40.859444,59.725713
40.978333,59.725713
41.098056,59.667643
41.23,59.648286
41.431667,59.541824
41.552222,59.483753
41.725278,59.416005
41.836111,59.377291
41.978056,59.319221
42.115556,59.251472
42.25,59.183723
42.415278,59.096618
42.58,58.999834
42.710833,58.970799
42.825833,58.951442
42.995,58.874015
43.126667,58.825623
43.267778,58.815945
43.437222,58.767553
43.5675,58.738517
43.7,58.680447
43.84,58.66109
43.951111,58.622377
44.085,58.573985
44.208611,58.54495
44.364444,58.506236
44.492778,58.477201
44.637778,58.428809
44.763611,58.380417
44.896667,58.36106
45.0225,58.30299
45.159722,58.293312
45.359167,58.254598
45.517778,58.24492
45.665833,58.186849
45.803611,58.157814
45.941111,58.109422
46.079444,58.090065
46.223056,58.051352
46.417222,57.983603
46.546667,57.993282
46.674722,57.925533
46.800833,57.915854
46.933333,57.896498
47.036389,57.877141
47.158889,57.819071
47.348889,57.770679
47.498611,57.770679
47.645278,57.693252
47.764167,57.70293
47.906111,57.654538
48.041667,57.625503
48.185833,57.577111
48.360556,57.567433
48.513333,57.538397
48.629722,57.499684
48.761944,57.451292
48.919167,57.451292
49.04,57.412578
49.150556,57.373865
49.373889,57.335151
49.516667,57.306116
49.625833,57.296438
49.8925,57.219011
50.005278,57.219011
50.128889,57.141584
50.287778,57.112548
50.486389,57.073835
50.664444,57.035121
50.806111,57.006086
50.927222,56.977051
51.013056,56.977051
51.168056,56.918981
51.353333,56.880267
51.513889,56.841554
51.6525,56.822197
51.786111,56.80284
51.916944,56.783483
52.05,56.735091
52.178889,56.725413
52.295,56.686699
52.4625,56.667343
52.563889,56.657664
52.704167,56.618951
52.811389,56.589915
52.944167,56.589915
53.073611,56.531845
53.195,56.522167
53.3625,56.493132
53.510278,56.425383
53.644444,56.435061
53.752778,56.415704
53.893056,56.357634
54.018889,56.367313
54.155556,56.347956
54.287222,56.318921
54.4625,56.270529
54.572222,56.270529
54.689444,56.222137
54.819722,56.212458
54.944722,56.193102
55.080556,56.164066
55.207222,56.115674
55.420833,56.067283
55.551389,56.076961
55.811389,56.009212
55.944722,55.96082
56.083056,55.941464
56.220833,55.970499
56.404167,55.90275
56.550833,55.883393
56.679722,55.864036
56.829167,55.825323
56.950278,55.805966
57.105,55.786609
57.240556,55.728539
57.424167,55.699504
57.573333,55.689825
57.713889,55.66079
57.838611,55.631755
58.0,55.622077
58.134167,55.564006
58.208056,55.534971
58.393611,55.505936
58.531944,55.467223
58.625,55.467223
58.741944,55.418831
58.876944,55.428509
58.973889,55.409152
59.098889,55.389795
59.269722,55.399474
59.434444,55.341404
59.558611,55.331725
59.686111,55.322047
59.82,55.30269
59.976111,55.312368
60.122778,55.30269
60.25,55.293012
60.439444,55.263976
60.568611,55.225263
60.715833,55.215584
60.836667,55.205906
60.963611,55.196228
61.097222,55.157514
61.206389,55.109122
61.394444,55.089765
61.511944,55.089765
61.644722,55.051052
61.777222,55.031695
61.883056,55.031695
62.007778,55.031695
62.144722,55.00266
62.287778,54.992982
62.453056,54.963946
62.586944,54.94459
62.708611,54.934911
62.830833,54.915554
62.976667,54.896198
63.098611,54.876841
63.2475,54.857484
63.429444,54.828449
63.5625,54.818771
63.720833,54.828449
63.850556,54.7607
63.978611,54.7607
64.101389,54.683273
64.229444,54.673595
64.432778,54.634881
64.576667,54.596168
64.709167,54.576811
64.841389,54.547776
64.973889,54.557454
65.107222,54.538097
65.223333,54.528419
65.423056,54.528419
65.568889,54.528419
65.6975,54.499384
65.843611,54.518741
65.971111,54.489705
66.131667,54.489705
66.284722,54.46067
66.486944,54.431635
66.646944,54.392922
66.79,54.373565
66.921111,54.363886
67.050278,54.354208
67.175,54.305816
67.348611,54.296138
67.508889,54.315494
67.638333,54.286459
67.768611,54.238067
67.904444,54.238067
68.021667,54.218711
68.160833,54.199354
68.296667,54.150962
68.487778,54.112248
68.646111,54.054178
68.7825,54.054178
68.907222,54.063856
69.040556,54.0445
69.141389,54.034821
69.273611,54.005786
69.451667,54.005786
69.584167,53.957394
69.704444,53.909002
69.851389,53.899324
70.005278,53.879967
70.108611,53.86061
70.233333,53.879967
70.420556,53.821897
70.585556,53.831575
70.679722,53.812218
70.804167,53.792862
70.9225,53.773505
71.050556,53.74447
71.175833,53.734791
71.351111,53.696078
71.506111,53.696078
71.633611,53.686399
71.783889,53.638007
71.907778,53.628329
72.035556,53.618651
72.16,53.608972
72.292778,53.589615
72.465833,53.579937
72.570556,53.550902
72.698056,53.550902
72.835278,53.550902
72.928333,53.521867
73.059167,53.521867
73.191944,53.492832
73.290556,53.492832
73.473611,53.483153
73.605,53.434761
73.720556,53.463796
73.896389,53.386369
74.063333,53.396048
74.193611,53.376691
74.378611,53.328299
74.633333,53.308942
74.801944,53.289585
74.926389,53.299264
75.038333,53.279907
75.164722,53.289585
75.270278,53.250872
75.434722,53.241193
75.573056,53.250872
75.703889,53.250872
75.831389,53.26055
75.958056,53.26055
76.126111,53.221837
76.218056,53.20248
76.414167,53.212158
76.546111,53.20248
76.669167,53.20248
76.802222,53.192802
76.950278,53.183123
77.109444,53.20248
77.238611,53.183123
77.422222,53.163766
77.579167,53.14441
77.694444,53.14441
77.839167,53.125053
77.956111,53.154088
78.121667,53.134731
78.2525,53.086339
78.423889,53.105696
78.553611,53.076661
78.698611,53.086339
78.81,53.057304
78.941111,53.037947
79.075,53.028269
79.231667,53.008912
79.4025,53.037947
79.535278,52.989555
79.652778,53.008912
79.774444,52.979877
79.909444,52.979877
80.036944,52.96052
80.164444,52.912128
80.271389,52.96052
80.422222,52.931485
80.575833,52.883093
80.691111,52.883093
80.826389,52.834701
80.988333,52.825023
81.122222,52.805666
81.255278,52.795988
81.432778,52.795988
81.575278,52.776631
81.851389,52.757274
81.978056,52.728239
82.122778,52.699204
82.263889,52.689525
82.428056,52.708882
82.576667,52.708882
82.706111,52.708882
82.825556,52.728239
82.976667,52.728239
83.105,52.728239
83.254167,52.737917
83.433056,52.776631
83.556111,52.795988
83.695278,52.747596
83.830278,52.766953
83.958611,52.747596
84.099167,52.708882
84.241944,52.718561
84.41,52.718561
84.588611,52.708882
84.721944,52.708882
84.846944,52.66049
84.961389,52.670169
85.091389,52.699204
85.223056,52.679847
85.411667,52.689525
85.561667,52.679847
85.715,52.708882
85.851667,52.66049
85.990833,52.621777
86.090833,52.621777
86.215278,52.60242
86.394722,52.621777
86.5325,52.60242
86.659444,52.573385
86.775833,52.612098
86.8975,52.60242
87.043611,52.573385
87.195556,52.54435
87.356944,52.583063
87.495,52.563706
87.615,52.563706
87.744167,52.563706
87.887222,52.534671
88.005556,52.554028
88.142222,52.534671
88.274444,52.563706
88.455278,52.54435
88.582222,52.54435
88.705556,52.515314
88.8175,52.505636
88.988056,52.476601
89.111667,52.418531
89.433889,52.418531
89.559167,52.389495
89.686111,52.389495
89.866667,52.389495
89.995556,52.370139
90.126111,52.389495
90.255556,52.379817
90.414444,52.370139
90.568889,52.312068
90.696944,52.30239
90.844444,52.312068
90.968056,52.283033
91.114167,52.253998
91.231389,52.215284
91.398611,52.195928
91.511389,52.166893
91.636389,52.157214
91.762778,52.118501
91.89,52.079787
92.041667,52.079787
92.195833,52.06043
92.395278,52.06043
92.534444,52.050752
92.643333,52.031395
92.76,52.031395
92.916389,52.00236
93.056111,52.012038
93.169167,51.992682
93.371667,52.00236
93.499722,52.012038
93.622778,52.00236
93.7825,52.00236
93.904722,51.992682
94.026111,51.963646
94.187222,51.934611
94.378333,51.934611
94.510833,51.953968
94.641667,51.934611
94.77,51.886219
94.901389,51.895898
95.046944,51.876541
95.1775,51.866862
95.295833,51.876541
95.47,51.847506
95.572778,51.837827
95.718889,51.905576
95.848333,51.857184
95.984167,51.876541
96.109444,51.828149
96.243611,51.857184
96.410278,51.857184
96.523333,51.837827
96.638889,51.828149
96.785278,51.837827
96.908611,51.857184
97.049722,51.808792
97.171389,51.857184
97.376389,51.837827
97.5,51.828149
97.610278,51.857184
97.895278,51.847506
98.0075,51.818471
98.148333,51.818471
98.357778,51.808792
98.479444,51.808792
98.612778,51.808792
98.769722,51.808792
98.896667,51.818471
99.023056,51.808792
99.155278,51.818471
99.346944,51.799114
99.488333,51.799114
99.608889,51.789435
99.772222,51.799114
99.896111,51.789435
100.029722,51.779757
100.165278,51.789435
100.355556,51.789435
100.492222,51.828149
100.631389,51.808792
100.759167,51.818471
100.906667,51.799114
101.002222,51.808792
101.133889,51.779757
101.235278,51.799114
101.408611,51.799114
101.577778,51.789435
101.709444,51.799114
101.835,51.770079
101.965833,51.750722
102.095833,51.731365
102.241111,51.731365
102.412222,51.721687
102.556389,51.731365
102.696944,51.712008
102.820278,51.70233
102.982778,51.682973
103.114444,51.663616
103.238056,51.663616
103.403889,51.692652
103.503056,51.721687
103.654167,51.731365
103.792222,51.770079
103.921667,51.789435
104.038611,51.799114
104.158333,51.818471
104.286667,51.779757
104.463611,51.799114
104.5575,51.818471
104.673611,51.837827
104.832222,51.857184
104.951389,51.886219
105.1075,51.905576
105.224722,51.973325
105.399444,51.983003
105.505556,52.021717
105.634167,52.031395
105.757778,52.041073
105.907222,52.06043
106.034167,52.06043
106.170833,52.041073
106.289722,52.089465
106.47,52.147536
106.573611,52.166893
106.703889,52.166893
106.832778,52.215284
106.936111,52.234641
107.068056,52.263676
107.191389,52.273355
107.367222,52.30239
107.503889,52.312068
107.620833,52.350782
107.769722,52.370139
107.873889,52.370139
108.0025,52.399174
108.118333,52.428209
108.248889,52.428209
108.435556,52.466923
108.560556,52.466923
108.709722,52.505636
108.807778,52.524993
108.941667,52.554028
109.068056,52.573385
109.181111,52.612098
109.374444,52.631455
109.517778,52.670169
109.641389,52.670169
109.776389,52.699204
109.897778,52.718561
110.054722,52.737917
110.158056,52.757274
110.369167,52.825023
110.507222,52.834701
110.608889,52.873415
110.758333,52.883093
110.912222,52.931485
111.036667,52.970199
111.163889,52.96052
111.343056,53.018591
111.513889,53.047626
111.633611,53.086339
111.763333,53.096018
111.9,53.125053
112.043889,53.154088
112.169722,53.173445
112.368611,53.231515
112.505833,53.26055
112.629167,53.26055
112.753056,53.279907
112.891944,53.289585
113.040833,53.289585
113.170278,53.279907
113.359722,53.318621
113.502778,53.337977
113.640278,53.308942
113.790556,53.347656
113.888889,53.328299
114.021944,53.357334
114.161667,53.347656
114.344167,53.376691
114.502778,53.454118
114.640833,53.483153
114.782222,53.50251
114.905,53.531545
115.036111,53.56058
115.188889,53.589615
115.355556,53.608972
115.488056,53.638007
115.646667,53.667043
115.767222,53.734791
115.904444,53.74447
116.02,53.74447
116.180556,53.792862
116.350556,53.812218
116.518333,53.841253
116.643611,53.86061
116.752222,53.86061
116.876667,53.879967
117.001389,53.889645
117.130556,53.918681
117.253056,53.918681
117.436667,53.918681
117.574167,53.918681
117.682778,53.909002
117.818333,53.918681
117.977222,53.918681
118.105556,53.928359
118.2275,53.976751
118.425556,54.005786
118.566667,54.005786
118.714167,54.005786
118.871389,54.015464
118.898611,54.034821
119.008333,54.015464
119.110278,54.0445
119.239167,54.025143
119.416389,54.034821
119.575833,54.025143
119.706111,54.083213
119.832778,54.073535
119.953889,54.073535
120.099444,54.092892
120.243333,54.083213
120.411389,54.121927
120.55,54.121927
120.681944,54.112248
120.835556,54.150962
120.994167,54.150962
121.139444,54.170319
121.2725,54.179997
121.414444,54.199354
121.56,54.199354
121.687222,54.218711
121.8875,54.247746
122.0525,54.257424
122.178056,54.247746
122.356667,54.238067
122.523333,54.247746
122.645556,54.257424
122.782222,54.267103
122.914722,54.267103
123.051389,54.276781
123.168611,54.286459
123.350556,54.315494
123.490556,54.325173
123.619167,54.305816
123.766944,54.34453
123.893056,54.34453
124.026389,54.334851
124.161944,54.354208
124.374167,54.363886
124.489444,54.392922
124.631389,54.383243
124.774444,54.4026
124.887778,54.373565
125.041389,54.4026
125.161389,54.431635
125.281667,54.412278
125.444167,54.412278
125.5775,54.4026
125.693333,54.431635
125.835,54.412278
125.95,54.421957
126.095278,54.392922
126.219167,54.4026
126.413611,54.431635
126.547222,54.392922
126.714167,54.392922
126.831389,54.4026
126.968056,54.4026
127.101667,54.383243
127.198333,54.392922
127.356944,54.412278
127.493611,54.392922
127.623611,54.4026
127.736944,54.392922
127.807222,54.363886
127.969167,54.373565
128.093611,54.363886
128.253333,54.354208
128.394722,54.354208
128.527222,54.363886
128.663889,54.363886
128.788889,54.325173
128.906389,54.334851
129.025833,54.296138
129.366667,54.286459
129.498056,54.305816
129.630278,54.296138
129.776944,54.267103
129.901111,54.257424
130.014444,54.247746
130.171111,54.247746
130.340556,54.257424
130.483611,54.238067
130.656944,54.238067
130.775,54.247746
130.925556,54.247746
131.071667,54.238067
131.174167,54.238067
131.36,54.238067
131.480833,54.238067
131.783056,54.286459
131.914444,54.267103
132.056944,54.267103
132.161389,54.247746
132.288056,54.267103
132.482222,54.276781
132.613333,54.267103
132.76,54.286459
132.885,54.296138
133.010833,54.305816
133.139167,54.305816
133.258056,54.286459
133.432222,54.286459
133.563611,54.325173
133.688333,54.296138
133.825,54.325173
133.966667,54.325173
134.080556,54.325173
134.213611,54.315494
134.3975,54.325173
134.534167,54.34453
134.595,54.34453
134.661389,54.421957
134.802778,54.392922
134.898333,54.431635
135.031111,54.431635
135.155,54.46067
135.3475,54.509062
135.5025,54.557454
135.638611,54.596168
135.7725,54.634881
135.9125,54.625203
136.0525,54.663916
136.166111,54.673595
136.363611,54.692952
136.484722,54.7607
136.648056,54.789735
136.76,54.789735
136.898889,54.799414
136.998333,54.818771
137.136111,54.838127
137.254167,54.828449
137.441389,54.857484
137.560556,54.896198
137.706111,54.94459
137.803889,54.94459
137.921389,54.925233
138.033611,54.963946
138.186944,54.963946
138.278611,54.983303
138.457222,54.94459
138.568056,55.00266
138.599167,55.00266
138.686111,55.012338
138.722778,54.973625
138.843333,55.012338
138.9675,54.992982
139.001389,55.012338
139.117222,55.012338
139.255,55.022017
139.439167,55.051052
139.569167,55.00266
