time,pressure
0.0,99.91397
0.01,99.739161
0.02,99.579933
0.03,99.42995
0.04,99.286989
0.05,99.149783
0.06,99.017491
0.07,98.889503
0.08,98.765352
0.09,98.644666
0.101111,98.515767
0.113333,98.375273
0.127222,98.222376
0.142778,98.05625
0.16,97.876055
0.179444,97.680943
0.201389,97.470064
0.226111,97.242576
0.253611,96.997655
0.284722,96.734503
0.319444,96.452357
0.358333,96.150506
0.401944,95.828294
0.451111,95.485139
0.506111,95.120541
0.567778,94.73409
0.637222,94.325479
0.715,93.894514
0.802222,93.441114
0.9,92.965322
1.009722,92.467305
1.133056,91.947356
1.271389,91.405888
1.426389,90.843435
1.600556,90.260638
1.795833,89.658242
2.014722,89.037078
2.260833,88.398057
2.536667,87.742146
2.846111,87.070364
3.193333,86.383756
3.583056,85.683384
4.020278,84.970311
4.510556,84.245584
5.061111,83.510227
5.678611,82.765226
6.371389,82.011525
7.148889,81.250013
8.021389,80.481524
9.0,79.706831
10.098056,78.926648
11.330278,78.141624
12.712778,77.35235
14.264167,76.559358
16.004444,75.763123
17.957222,74.964071
20.148611,74.162577
22.606944,73.358972
23.303611,73.146854
24.0,72.940866
24.01,72.938325
24.02,72.935752
24.03,72.93316
24.044167,72.929501
24.064722,72.924093
24.095,72.9161
24.139167,72.904282
24.204444,72.886814
24.3,72.86101
24.440278,72.822952
24.646389,72.766957
24.948611,72.684878
25.3925,72.565217
26.043889,72.392076
27.0,72.144109
28.403333,71.793805
30.463333,71.307693
33.486944,70.648284
37.924722,69.778366
44.438889,68.667434
46.219444,68.391693
48.0,68.126254
48.01,68.124044
48.02,68.121901
48.03,68.119798
48.044167,68.116896
48.064722,68.112717
48.095,68.106716
48.139167,68.098123
48.204444,68.08585
48.3,68.068365
48.440278,68.043502
48.646389,68.008202
48.948611,67.958125
49.3925,67.887123
50.043889,67.786503
51.0,67.644107
52.403333,67.443221
54.463333,67.161539
57.486944,66.770548
61.924722,66.236012
68.438889,65.520354
78.0,64.587453
92.033889,63.409328
94.016944,63.257634
96.0,63.109124
96.01,63.112678
96.02,63.11585
96.03,63.118794
96.044167,63.122643
96.064722,63.127834
96.095,63.134702
96.139167,63.143579
96.204444,63.154718
96.3,63.168167
96.440278,63.183586
96.646389,63.199995
96.948611,63.215441
97.3925,63.226626
98.043889,63.228449
99.0,63.213488
100.403333,63.171347
102.463333,63.087851
105.486944,62.944092
109.924722,62.715536
116.438889,62.371629
118.219444,62.278057
120.0,62.185017
120.01,62.183189
120.02,62.181478
120.03,62.179835
120.044167,62.177617
120.064722,62.1745
120.095,62.170154
120.139167,62.164142
120.204444,62.155896
120.3,62.144677
120.440278,62.129532
120.646389,62.109214
120.948611,62.082053
121.3925,62.045756
122.043889,61.997083
123.0,61.931358
124.403333,61.841791
126.463333,61.718573
129.486944,61.547768
133.924722,61.310122
140.438889,60.980095
142.219444,60.892998
144.0,60.80709
144.01,60.808479
144.02,60.809701
144.03,60.810824
144.044167,60.812277
144.064722,60.81421
144.095,60.816722
144.139167,60.819885
144.204444,60.823705
144.3,60.828052
144.440278,60.832554
144.646389,60.836456
144.948611,60.83843
145.3925,60.836335
146.043889,60.826922
147.0,60.80545
148.403333,60.765189
150.463333,60.696741
153.486944,60.587181
157.924722,60.419031
164.438889,60.169277
166.219444,60.101365
168.0,60.033765
168.01,60.030772
168.02,60.028011
168.03,60.025389
168.044167,60.021882
168.064722,60.017014
168.095,60.010326
168.139167,60.001243
168.204444,59.989065
168.3,59.972959
168.440278,59.951958
168.646389,59.924943
168.948611,59.890593
169.3925,59.847264
170.043889,59.792755
171.0,59.723928
172.403333,59.636139
174.463333,59.522479
177.486944,59.372825
181.924722,59.172731
188.438889,58.902302
190.219444,58.83168
192.0,58.762202
192.01,58.759947
192.02,58.757858
192.03,58.755869
192.044167,58.7532
192.064722,58.749483
192.095,58.744354
192.139167,58.737349
192.204444,58.727893
192.3,58.715279
192.440278,58.698653
192.646389,58.676981
192.948611,58.648975
193.3925,58.61297
194.043889,58.566694
195.0,58.506918
196.403333,58.428956
198.463333,58.326009
201.486944,58.188355
205.924722,58.002405
212.438889,57.749707
214.219444,57.683607
216.0,57.618557
216.01,57.620902
216.02,57.623006
216.03,57.624967
216.044167,57.627541
216.064722,57.631028
216.095,57.635674
216.139167,57.641734
216.204444,57.649436
216.3,57.658911
216.440278,57.670092
216.646389,57.682572
216.948611,57.69543
217.3925,57.70703
218.043889,57.714789
219.0,57.714914
220.403333,57.702062
222.463333,57.668877
225.486944,57.60536
229.924722,57.498048
236.438889,57.329077
238.219444,57.281968
240.0,57.23471
240.01,57.234351
240.02,57.234001
240.03,57.233655
240.044167,57.233176
240.064722,57.232482
240.095,57.231481
240.139167,57.230038
240.204444,57.22796
240.3,57.224973
240.440278,57.220684
240.646389,57.214523
240.948611,57.205667
241.3925,57.19292
242.043889,57.174532
243.0,57.147938
244.403333,57.109385
246.463333,57.053396
249.486944,56.972048
253.924722,56.854034
260.438889,56.683576
262.219444,56.637552
264.0,56.591776
264.01,56.589839
264.02,56.588052
264.03,56.586353
264.044167,56.58408
264.064722,56.580924
264.095,56.576586
264.139167,56.570689
264.204444,56.562776
264.3,56.552298
264.440278,56.538616
264.646389,56.520983
264.948611,56.49851
265.3925,56.470082
266.043889,56.434199
267.0,56.388715
268.403333,56.33045
270.463333,56.254665
273.486944,56.154362
277.924722,56.019421
284.438889,55.83557
286.219444,55.787272
288.0,55.739639
288.01,55.737505
288.02,55.735538
288.03,55.73367
288.044167,55.731172
288.064722,55.727705
288.095,55.722942
288.139167,55.716476
288.204444,55.707808
288.3,55.696352
288.440278,55.681423
288.646389,55.662236
288.948611,55.637867
289.3925,55.607179
290.043889,55.568659
291.0,55.520169
292.403333,55.458563
294.463333,55.379197
297.486944,55.275286
301.924722,55.137132
308.438889,54.951201
310.219444,54.902705
312.0,54.854995
312.01,54.857157
312.02,54.859103
312.03,54.86092
312.044167,54.86331
312.064722,54.866559
312.095,54.870903
312.139167,54.876598
312.204444,54.883888
312.3,54.892947
312.440278,54.903799
312.646389,54.916201
312.948611,54.929506
313.3925,54.942506
314.043889,54.953261
315.0,54.958911
316.403333,54.955435
318.463333,54.937321
321.486944,54.897087
325.924722,54.824624
332.438889,54.706367
334.219444,54.672893
336.0,54.639151
336.01,54.640455
336.02,54.641626
336.03,54.642718
336.044167,54.644152
336.064722,54.646096
336.095,54.648689
336.139167,54.652075
336.204444,54.656386
336.3,54.661703
336.440278,54.668
336.646389,54.675064
336.948611,54.682405
337.3925,54.689132
338.043889,54.69382
339.0,54.694338
340.403333,54.687608
342.463333,54.669252
345.486944,54.633058
349.924722,54.57024
356.438889,54.468484
358.219444,54.43962
360.0,54.410474
360.01,54.417593
360.02,54.424063
360.03,54.430148
360.044167,54.438207
360.064722,54.449256
360.095,54.464202
360.139167,54.484095
360.204444,54.510082
360.3,54.543297
360.440278,54.584701
360.646389,54.63487
360.948611,54.693759
361.3925,54.760491
362.043889,54.833219
363.0,54.909055
364.403333,54.984033
366.463333,55.052987
369.486944,55.109231
373.924722,55.143945
380.438889,55.145249
382.219444,55.139624
384.0,55.1322
384.01,55.131594
384.02,55.131037
384.03,55.13051
384.044167,55.129807
384.064722,55.128836
384.095,55.127507
384.139167,55.125713
384.204444,55.123325
384.3,55.120196
384.440278,55.11616
384.646389,55.111034
384.948611,55.104611
385.3925,55.096624
386.043889,55.086688
387.0,55.074167
388.403333,55.05796
390.463333,55.036132
393.486944,55.005343
397.924722,54.959995
404.438889,54.891102
406.219444,54.871748
408.0,54.852188
408.01,54.850397
408.02,54.848756
408.03,54.847203
408.044167,54.845135
408.064722,54.84228
408.095,54.838382
408.139167,54.833133
408.204444,54.826169
408.3,54.817083
408.440278,54.805443
408.646389,54.790801
408.948611,54.772709
409.3925,54.750687
410.043889,54.724159
411.0,54.692303
412.403333,54.653822
414.463333,54.606615
417.486944,54.547305
421.924722,54.470588
428.438889,54.368335
430.219444,54.341598
432.0,54.315223
432.01,54.316756
432.02,54.31814
432.03,54.319435
432.044167,54.321142
432.064722,54.323467
432.095,54.326585
432.139167,54.330692
432.204444,54.335978
432.3,54.342601
432.440278,54.350628
432.646389,54.359967
432.948611,54.370278
433.3925,54.380884
434.043889,54.390667
435.0,54.397964
436.403333,54.400433
438.463333,54.394849
441.486944,54.376785
445.924722,54.34012
452.438889,54.276323
462.0,54.173448
476.033889,54.014899
478.016944,53.992189
480.0,53.969441
480.01,53.966338
480.02,53.963502
480.03,53.960823
480.044167,53.957261
480.064722,53.952353
480.095,53.94567
480.139167,53.9367
480.204444,53.924852
480.3,53.909482
480.440278,53.889936
480.646389,53.865597
480.948611,53.83592
481.3925,53.800439
482.043889,53.758696
483.0,53.710088
484.403333,53.65361
486.463333,53.587509
489.486944,53.50884
493.924722,53.412913
500.438889,53.292576
502.219444,53.262193
504.0,53.232584
504.01,53.236716
504.02,53.240464
504.03,53.243985
504.044167,53.248643
504.064722,53.255021
504.095,53.263632
504.139167,53.275066
504.204444,53.289955
504.3,53.308906
504.440278,53.332391
504.646389,53.360617
504.948611,53.393367
505.3925,53.429856
506.043889,53.46862
507.0,53.507448
508.403333,53.543335
510.463333,53.572394
513.486944,53.589677
517.924722,53.588838
524.438889,53.561593
526.219444,53.551149
528.0,53.539835
528.01,53.54033
528.02,53.540774
528.03,53.541189
528.044167,53.541734
528.064722,53.542475
528.095,53.543463
528.139167,53.544757
528.204444,53.546408
528.3,53.54845
528.440278,53.550879
528.646389,53.55362
528.948611,53.556494
529.3925,53.559161
530.043889,53.561067
531.0,53.561344
532.403333,53.558676
534.463333,53.551063
537.486944,53.535459
541.924722,53.507221
548.438889,53.459361
550.219444,53.445413
552.0,53.431187
552.01,53.429238
552.02,53.427457
552.03,53.425774
552.044167,53.423535
552.064722,53.420449
552.095,53.416245
552.139167,53.410599
552.204444,53.403135
552.3,53.393443
552.440278,53.381098
552.646389,53.365696
552.948611,53.346862
553.3925,53.324257
554.043889,53.297514
555.0,53.266126
556.403333,53.22925
558.463333,53.185429
561.486944,53.132213
565.924722,53.065653
572.438889,52.979605
574.219444,52.957461
576.0,52.935729
576.01,52.932059
576.02,52.928706
576.03,52.92554
576.044167,52.921332
576.064722,52.915535
576.095,52.907646
576.139167,52.897063
576.204444,52.883093
576.3,52.864991
576.440278,52.842001
576.646389,52.813426
576.948611,52.778675
577.3925,52.737279
578.043889,52.688831
579.0,52.63283
580.403333,52.568441
582.463333,52.494166
585.486944,52.407476
589.924722,52.304361
596.438889,52.178772
598.219444,52.147656
600.0,52.11754
600.01,52.112145
600.02,52.107215
600.03,52.102562
600.044167,52.096377
600.064722,52.087858
600.095,52.076268
600.139167,52.060724
600.204444,52.040215
600.3,52.013653
600.440278,51.979944
600.646389,51.938087
600.948611,51.887257
601.3925,51.826828
602.043889,51.756312
603.0,51.675153
604.403333,51.582422
606.463333,51.476433
609.486944,51.354344
613.924722,51.211755
620.438889,51.042272
622.219444,51.000999
624.0,50.961316
624.01,50.962779
624.02,50.964091
624.03,50.965314
624.044167,50.96692
624.064722,50.969098
624.095,50.972001
624.139167,50.975792
624.204444,50.980616
624.3,50.986563
624.440278,50.993603
624.646389,51.001504
624.948611,51.009732
625.3925,51.017331
626.043889,51.02281
627.0,51.024017
628.403333,51.018005
630.463333,51.000877
633.486944,50.967593
637.924722,50.911738
644.438889,50.825228
646.219444,50.801384
648.0,50.777568
648.01,50.776314
648.02,50.77516
648.03,50.774065
648.044167,50.772602
648.064722,50.770575
648.095,50.767795
648.139167,50.764029
648.204444,50.758996
648.3,50.752367
648.440278,50.743768
648.646389,50.732777
648.948611,50.718916
649.3925,50.701604
650.043889,50.680079
651.0,50.653255
652.403333,50.619511
654.463333,50.576405
657.486944,50.520303
661.924722,50.445942
668.438889,50.345903
670.219444,50.319791
672.0,50.29409
672.01,50.293387
672.02,50.292733
672.03,50.292109
672.044167,50.29127
672.064722,50.290099
672.095,50.288479
672.139167,50.286257
672.204444,50.283244
672.3,50.279201
672.440278,50.273834
672.646389,50.266775
672.948611,50.257558
673.3925,50.245562
674.043889,50.229931
675.0,50.209443
676.403333,50.182325
678.463333,50.146003
681.486944,50.096787
685.924722,50.029463
692.438889,49.936794
702.0,49.80891
716.033889,49.632588
718.016944,49.608513
720.0,49.584619
720.01,49.583939
720.02,49.583308
720.03,49.582708
720.044167,49.581901
720.064722,49.580778
720.095,49.579227
720.139167,49.577109
720.204444,49.574246
720.3,49.570423
720.440278,49.565378
720.646389,49.558789
720.948611,49.550257
721.3925,49.539255
722.043889,49.525059
723.0,49.506631
724.403333,49.48244
726.463333,49.450228
729.486944,49.40669
733.924722,49.34706
740.438889,49.264583
742.219444,49.242742
744.0,49.221141
744.01,49.223262
744.02,49.225183
744.03,49.226985
744.044167,49.229366
744.064722,49.232621
744.095,49.237008
744.139167,49.242819
744.204444,49.250359
744.3,49.259911
744.440278,49.271671
744.646389,49.285674
744.948611,49.301695
745.3925,49.319162
746.043889,49.337068
747.0,49.353899
748.403333,49.367546
750.463333,49.375172
753.486944,49.372988
757.924722,49.355907
764.438889,49.317041
766.219444,49.304835
768.0,49.292173
768.01,49.290794
768.02,49.289531
768.03,49.288337
768.044167,49.286748
768.064722,49.284555
768.095,49.281564
768.139167,49.277542
768.204444,49.272213
768.3,49.265275
768.440278,49.256409
768.646389,49.245295
768.948611,49.231618
769.3925,49.215061
770.043889,49.195245
771.0,49.171625
772.403333,49.143318
774.463333,49.108845
777.486944,49.065787
781.924722,49.010318
788.438889,48.936602
790.219444,48.91736
792.0,48.898392
792.01,48.89922
792.02,48.899965
792.03,48.90066
792.044167,48.901575
792.064722,48.902817
792.095,48.904477
792.139167,48.906651
792.204444,48.909432
792.3,48.912882
792.440278,48.917005
792.646389,48.9217
792.948611,48.926707
793.3925,48.931542
794.043889,48.935432
795.0,48.937232
796.403333,48.935323
798.463333,48.92746
801.486944,48.910544
805.924722,48.880278
812.438889,48.830677
814.219444,48.816555
816.0,48.80228
816.01,48.800332
816.02,48.79855
816.03,48.796868
816.044167,48.794629
816.064722,48.791543
816.095,48.78734
816.139167,48.781694
816.204444,48.774231
816.3,48.76454
816.440278,48.752199
816.646389,48.736802
816.948611,48.71798
817.3925,48.695397
818.043889,48.668699
819.0,48.637405
820.403333,48.600725
822.463333,48.557308
825.486944,48.504921
829.924722,48.440033
836.438889,48.357281
838.219444,48.336188
840.0,48.315564
840.01,48.317691
840.02,48.319618
840.03,48.321426
840.044167,48.323816
840.064722,48.327084
840.095,48.331489
840.139167,48.337327
840.204444,48.344907
840.3,48.354518
840.440278,48.366367
840.646389,48.3805
840.948611,48.396718
841.3925,48.414482
842.043889,48.432843
843.0,48.450379
844.403333,48.465129
846.463333,48.474506
849.486944,48.475123
853.924722,48.462522
860.438889,48.430747
862.219444,48.42055
864.0,48.409919
864.01,48.410792
864.02,48.411582
864.03,48.412322
864.044167,48.4133
864.064722,48.414634
864.095,48.41643
864.139167,48.418804
864.204444,48.421876
864.3,48.425752
864.440278,48.430498
864.646389,48.4361
864.948611,48.442425
865.3925,48.449167
866.043889,48.455796
867.0,48.461497
868.403333,48.465076
870.463333,48.464813
873.486944,48.458212
877.924722,48.441627
884.438889,48.409724
886.219444,48.400051
888.0,48.390082
888.01,48.389092
888.02,48.388185
888.03,48.387327
888.044167,48.386184
888.064722,48.384607
888.095,48.382456
888.139167,48.37956
888.204444,48.37572
888.3,48.370716
888.440278,48.364311
888.646389,48.356267
888.948611,48.346344
889.3925,48.334291
890.043889,48.319806
891.0,48.302451
892.403333,48.281522
894.463333,48.255852
897.486944,48.223537
901.924722,48.18155
908.438889,48.125214
918.0,48.047503
932.033889,47.938177
934.016944,47.923003
936.0,47.907882
936.01,47.906685
936.02,47.905588
936.03,47.904551
936.044167,47.903169
936.064722,47.90126
936.095,47.898654
936.139167,47.895144
936.204444,47.890485
936.3,47.884405
936.440278,47.876612
936.646389,47.866805
936.948611,47.85468
937.3925,47.839914
938.043889,47.822123
939.0,47.800767
940.403333,47.775018
942.463333,47.743568
945.486944,47.704374
949.924722,47.654338
956.438889,47.588863
958.219444,47.571959
960.0,47.555366
960.01,47.555647
960.02,47.555895
960.03,47.556123
960.044167,47.556418
960.064722,47.556812
960.095,47.557325
960.139167,47.557973
960.204444,47.55876
960.3,47.559662
960.440278,47.560612
960.646389,47.561465
960.948611,47.561966
961.3925,47.561706
962.043889,47.560059
963.0,47.556114
964.403333,47.548578
966.463333,47.535639
969.486944,47.514774
973.924722,47.482482
980.438889,47.433897
982.219444,47.420544
984.0,47.407188
984.01,47.40786
984.02,47.408465
984.03,47.409031
984.044167,47.409776
984.064722,47.410789
984.095,47.412146
984.139167,47.413929
984.204444,47.416215
984.3,47.419066
984.440278,47.422497
984.646389,47.426446
984.948611,47.43073
985.3925,47.434998
986.043889,47.43868
987.0,47.440919
988.403333,47.440496
990.463333,47.435692
993.486944,47.424101
997.924722,47.402332
1004.438889,47.365598
1006.219444,47.355004
1008.0,47.344251
1008.01,47.343817
1008.02,47.343416
1008.03,47.343035
1008.044167,47.342524
1008.064722,47.341815
1008.095,47.340839
1008.139167,47.339512
1008.204444,47.337728
1008.3,47.335361
1008.440278,47.332264
1008.646389,47.328261
1008.948611,47.323138
1009.3925,47.316622
1010.043889,47.308337
1011.0,47.297734
1012.403333,47.283979
1014.463333,47.265794
1017.486944,47.241227
1021.924722,47.207331
1028.438889,47.159721
1038.0,47.091992
1052.033889,46.994976
1054.016944,46.981431
1056.0,46.967921
1056.01,46.968226
1056.02,46.968498
1056.03,46.968751
1056.044167,46.96908
1056.064722,46.969524
1056.095,46.97011
1056.139167,46.970866
1056.204444,46.97181
1056.3,46.972944
1056.440278,46.974231
1056.646389,46.975577
1056.948611,46.976798
1057.3925,46.97758
1058.043889,46.97744
1059.0,46.975656
1060.403333,46.971193
1062.463333,46.962569
1065.486944,46.947675
1069.924722,46.923499
1076.438889,46.885729
1078.219444,46.875147
1080.0,46.864493
1080.01,46.865367
1080.02,46.866158
1080.03,46.866899
1080.044167,46.867877
1080.064722,46.869214
1080.095,46.871012
1080.139167,46.87339
1080.204444,46.876468
1080.3,46.880353
1080.440278,46.885115
1080.646389,46.890744
1080.948611,46.897114
1081.3925,46.903936
1082.043889,46.910714
1083.0,46.916693
1084.403333,46.920798
1086.463333,46.921532
1089.486944,46.916799
1093.924722,46.903644
1100.438889,46.877846
1102.219444,46.870008
1104.0,46.861931
1104.01,46.862819
1104.02,46.863624
1104.03,46.864379
1104.044167,46.865377
1104.064722,46.866743
1104.095,46.868583
1104.139167,46.871023
1104.204444,46.874192
1104.3,46.878211
1104.440278,46.883167
1104.646389,46.889081
1104.948611,46.895865
1105.3925,46.903289
1106.043889,46.910934
1107.0,46.918157
1108.403333,46.924028
1110.463333,46.927234
1113.486944,46.92591
1117.924722,46.917353
1124.438889,46.897612
1126.219444,46.89131
1128.0,46.884727
1128.01,46.881141
1128.02,46.877871
1128.03,46.874788
1128.044167,46.870697
1128.064722,46.865071
1128.095,46.857434
1128.139167,46.847219
1128.204444,46.833791
1128.3,46.81648
1128.440278,46.79465
1128.646389,46.767771
1128.948611,46.735496
1129.3925,46.697704
1130.043889,46.654487
1131.0,46.606042
1132.403333,46.552499
1134.463333,46.493668
1137.486944,46.428754
1141.924722,46.356002
1148.438889,46.272272
1150.219444,46.252138
1152.0,46.232833
1152.01,46.237209
1152.02,46.241185
1152.03,46.244924
1152.044167,46.249877
1152.064722,46.256666
1152.095,46.265848
1152.139167,46.278068
1152.204444,46.294029
1152.3,46.314426
1152.440278,46.339846
1152.646389,46.370642
1152.948611,46.406786
1153.3925,46.447752
1154.043889,46.492445
1155.0,46.53919
1156.403333,46.585776
1158.463333,46.6295
1161.486944,46.667166
1165.924722,46.694983
1172.438889,46.708337
1174.219444,46.708784
1176.0,46.708287
1176.01,46.707348
1176.02,46.706492
1176.03,46.705686
1176.044167,46.704616
1176.064722,46.703145
1176.095,46.701149
1176.139167,46.698481
1176.204444,46.694975
1176.3,46.69046
1176.440278,46.68477
1176.646389,46.67777
1176.948611,46.669366
1177.3925,46.659519
