time,pressure
0.0,88.533053
2.0,72.248199
4.000556,58.431334
6.0,57.247667
7.999722,56.55663
10.000278,56.063032
12.0,55.766874
13.999444,55.371995
16.0,55.075837
17.999444,54.878398
20.000278,54.779678
22.000833,54.582239
23.999722,54.483519
26.000278,54.779678
27.9975,54.3848
29.997778,54.088641
31.998056,53.79345
33.997778,53.497292
35.993333,53.201133
37.9975,53.003694
39.996944,52.806255
41.998056,52.510096
43.9975,52.312657
45.997222,52.213938
47.997222,52.016499
50.0,51.917779
51.999444,51.72034
54.0,51.62162
55.996389,51.424181
57.996667,51.325462
59.997778,51.226742
62.000278,51.128023
63.999722,51.029303
66.001667,50.930584
67.999722,50.831864
70.0,50.733144
71.999722,50.634425
74.001111,50.535705
76.001667,50.339234
78.000278,50.141795
80.000556,50.339234
82.000833,50.141795
83.997778,49.944356
86.000833,49.944356
88.001111,49.845636
89.999722,49.746917
92.000833,49.648197
94.001389,49.549478
96.000833,49.549478
97.999722,49.450758
100.000278,49.450758
102.001389,49.352039
104.000278,49.253319
106.001389,49.05588
108.000556,48.95716
110.000833,48.858441
111.996111,48.858441
114.001667,48.759721
116.001111,48.661002
118.0,48.661002
120.001944,48.562282
122.000556,48.463563
124.0,48.463563
125.999722,48.364843
128.001111,48.266124
130.0,48.167404
132.000833,48.068684
134.001944,48.167404
135.999722,48.068684
138.000833,48.068684
140.000556,47.969965
142.000833,47.969965
144.002778,47.871245
146.000833,47.772526
148.000833,47.673806
150.000278,47.673806
152.0,47.673806
154.000278,47.575087
156.001111,47.575087
158.000556,47.476367
160.000833,47.476367
162.000833,47.377648
163.999722,47.278928
166.000556,47.278928
168.001389,47.180209
170.0025,47.180209
172.001944,47.081489
174.001111,47.081489
176.001111,46.982769
178.001944,46.885018
180.000833,46.885018
181.999722,46.786298
184.001389,46.786298
186.001944,46.786298
188.001111,46.687579
190.001111,46.687579
192.001111,46.588859
194.000556,46.49014
196.001389,46.49014
198.001944,46.39142
200.001389,46.39142
202.000833,46.39142
204.001389,46.2927
206.001389,46.2927
208.000556,46.2927
210.000833,46.193981
212.000556,46.193981
214.000833,46.095261
216.002222,46.095261
218.000833,45.996542
219.998333,45.996542
221.997778,45.996542
223.998056,45.897822
225.998056,45.897822
228.000833,45.799103
230.000278,45.799103
232.000833,45.799103
234.000556,45.799103
235.999722,45.700383
238.000833,45.700383
240.000278,45.700383
242.000833,45.601664
244.001111,45.601664
246.0,45.502944
248.001389,45.502944
250.000278,45.502944
252.000833,45.404224
254.001944,45.404224
256.0,45.404224
257.999722,45.404224
260.000833,45.305505
262.001111,45.305505
264.001389,45.305505
266.001111,45.206785
268.0025,45.206785
269.999722,45.206785
272.000833,45.108066
274.000556,45.206785
276.000278,45.108066
278.001389,45.108066
280.001944,45.108066
282.001667,45.009346
284.000833,45.009346
286.001111,45.009346
288.001667,45.009346
290.001667,45.009346
292.000833,45.009346
294.0,44.910627
296.001944,44.910627
298.001111,44.910627
300.000278,44.811907
302.000278,44.811907
304.000833,44.811907
306.002778,44.713188
308.001111,44.713188
310.0,44.713188
312.001667,44.713188
314.000556,44.713188
316.001389,44.614468
318.000278,44.614468
320.000833,44.515749
322.000278,44.515749
324.001944,44.515749
326.000278,44.515749
328.000278,44.417029
330.001111,44.417029
332.000833,44.417029
334.001389,44.417029
336.000278,44.318309
338.000278,44.318309
340.000833,44.318309
342.001944,44.21959
344.001944,44.21959
346.000278,44.21959
348.001111,44.318309
350.000556,44.318309
352.001111,44.318309
354.001667,44.21959
356.001667,44.21959
358.001111,44.21959
360.001111,44.12087
361.998889,44.022151
364.000556,44.21959
366.001111,43.923431
367.998056,44.12087
369.999167,44.022151
371.997778,44.12087
373.999167,43.923431
375.998056,44.12087
377.999167,44.022151
379.999167,44.022151
382.0,44.022151
383.998889,43.923431
385.9975,43.923431
387.999722,43.824712
390.001111,43.824712
392.001389,43.824712
394.002222,43.824712
396.001111,43.824712
398.001944,43.824712
400.002222,43.824712
402.000556,43.725992
404.001111,43.725992
406.001667,43.725992
408.002778,43.725992
410.001111,43.725992
412.000556,43.627273
414.000278,43.627273
416.001111,43.627273
418.001944,43.627273
420.0,43.627273
422.001389,43.528553
424.003333,43.528553
426.001667,43.528553
428.000278,43.528553
430.001667,43.528553
432.001389,43.528553
434.001111,43.528553
436.001389,43.430801
438.001389,43.430801
440.000833,43.430801
442.000833,43.430801
444.001111,43.430801
446.001944,43.430801
448.002222,43.430801
450.001667,43.430801
452.001944,43.332082
454.001111,43.332082
456.001667,43.332082
458.001389,43.332082
460.0025,43.134643
462.001944,43.233362
464.001111,43.430801
466.001111,43.332082
468.001667,43.233362
470.001389,43.233362
472.001667,43.233362
474.000833,43.233362
476.000833,43.233362
478.001667,43.233362
480.003333,43.134643
482.001944,43.134643
484.001944,43.134643
486.001111,43.430801
490.005833,47.278928
492.0,46.49014
494.0,45.700383
496.000278,45.502944
498.0,45.206785
499.999722,44.910627
502.000278,44.713188
504.0,44.614468
506.0,44.417029
508.000556,44.21959
509.999722,44.12087
512.0,44.022151
513.999722,44.022151
515.999722,43.923431
517.999722,43.824712
520.000833,43.725992
522.0,43.627273
523.999722,43.627273
526.0,43.528553
527.999722,43.430801
530.000278,43.430801
531.996667,43.332082
533.996667,43.233362
535.999722,43.233362
538.0,43.233362
539.999444,43.233362
541.999722,43.134643
543.999722,43.134643
546.000278,43.134643
548.0,43.134643
550.0,43.134643
551.999444,43.035923
554.0,43.035923
556.000278,42.937204
557.997222,42.937204
559.996944,42.838484
561.996667,42.937204
564.000278,42.937204
565.999722,42.739764
568.0,42.838484
569.999722,42.739764
572.0,42.739764
573.999722,42.739764
576.0,42.739764
578.000278,42.641045
581.995556,46.687579
583.999722,45.601664
586.000556,45.108066
587.995833,44.910627
590.000278,44.614468
591.999722,44.417029
594.0,44.21959
596.0,44.12087
598.0,43.923431
600.0,43.824712
602.000278,43.627273
604.000278,43.430801
606.000278,43.332082
607.999722,43.233362
609.999722,43.134643
612.0,43.035923
613.999722,43.035923
615.999722,43.035923
618.000556,42.838484
620.000556,42.739764
622.0,42.739764
624.0,42.641045
626.000556,42.641045
628.000278,42.641045
629.999444,42.542325
632.000556,42.542325
634.000278,42.542325
636.0,42.443606
638.0,42.443606
640.000833,42.344886
642.000278,42.344886
643.999722,42.344886
646.000278,42.443606
648.0,42.246167
650.001111,42.246167
651.996944,42.147447
653.9975,42.147447
655.9975,42.147447
658.001389,42.048728
660.000833,42.048728
662.000833,42.048728
664.001389,42.048728
666.000556,41.950008
668.0,41.950008
670.000833,41.950008
671.999722,41.950008
674.001111,41.851289
676.000556,41.752569
677.999722,41.851289
679.997778,41.851289
681.999444,41.752569
684.000556,41.752569
686.001111,41.752569
688.0,41.752569
690.001111,41.653849
692.001389,41.653849
694.001667,41.653849
696.001389,41.653849
698.001389,41.653849
700.000833,41.55513
702.000556,41.55513
704.000556,41.55513
706.000833,41.55513
708.0,41.45641
710.0,41.45641
712.000278,41.45641
714.001389,41.45641
716.001667,41.357691
718.000556,41.357691
720.000833,41.357691
721.999722,41.357691
724.000833,41.357691
726.000833,41.357691
728.001111,41.55513
730.000833,41.45641
732.000556,41.160252
734.000278,41.160252
736.001111,41.160252
738.000556,41.160252
740.0,41.160252
742.000556,41.160252
744.000556,41.160252
746.000556,41.160252
748.000556,41.160252
750.000833,41.160252
752.000833,41.160252
754.001111,41.061532
756.000556,41.061532
758.000278,41.061532
760.000278,41.061532
762.0,41.061532
764.000278,41.061532
766.001389,41.061532
768.000833,40.962813
770.001389,40.962813
772.000278,40.962813
774.000833,40.962813
776.001389,40.962813
778.000556,41.061532
780.001389,41.061532
782.000833,40.962813
784.000278,40.962813
786.000556,40.962813
788.000556,40.962813
790.000556,40.864093
792.000556,40.864093
794.000278,40.864093
796.000833,40.864093
798.000556,40.864093
800.001111,41.160252
802.000833,40.765373
804.001111,40.765373
806.000278,40.765373
808.000278,40.765373
810.000556,40.765373
812.000833,40.765373
814.001111,40.666654
816.000278,40.765373
818.000556,40.765373
819.998056,40.765373
822.000278,40.765373
824.000556,40.765373
826.000556,40.666654
828.001111,40.666654
830.000833,40.666654
832.0,40.666654
834.000278,40.666654
836.000278,40.666654
838.001111,40.666654
840.001389,40.666654
842.000556,40.666654
844.000278,40.567934
848.000833,44.713188
850.000278,44.614468
852.000833,43.627273
854.0,43.233362
856.000833,42.838484
858.000833,42.542325
860.000278,42.246167
862.000278,42.048728
864.000833,41.950008
866.000278,41.752569
868.000556,41.653849
870.000556,41.55513
872.000556,41.45641
874.000833,41.357691
876.000833,41.258971
878.000833,41.258971
880.001389,41.160252
882.000833,41.160252
884.000556,41.061532
886.000556,41.061532
888.000833,41.061532
890.000833,40.962813
892.000556,40.962813
898.001111,45.799103
900.000833,44.614468
902.000556,43.923431
904.001111,43.627273
906.000278,43.233362
908.000556,43.233362
910.000556,42.641045
912.000556,42.443606
914.001111,42.246167
916.001389,42.048728
918.001111,41.950008
920.000278,41.851289
922.000556,41.752569
924.000833,41.653849
926.0,41.55513
928.000556,41.45641
930.001111,41.357691
932.001389,41.357691
934.000833,41.258971
936.000556,41.258971
938.001389,41.160252
940.000833,41.258971
942.001667,41.160252
944.000833,41.061532
946.001111,40.962813
948.001111,40.962813
950.000833,40.962813
952.001389,40.962813
953.999722,40.962813
956.000833,40.864093
958.000833,40.864093
960.0,40.765373
962.000833,40.765373
964.001389,40.765373
966.000556,40.765373
968.000278,40.666654
970.0,40.765373
972.000278,40.765373
974.000556,40.666654
976.000278,40.666654
978.000278,40.567934
980.0,40.567934
982.0,40.469215
984.000278,40.469215
986.0,40.370495
988.000833,40.370495
989.999722,40.370495
992.000833,40.370495
994.001389,40.370495
996.000833,40.370495
998.000556,40.469215
1000.001111,40.370495
1002.0,40.370495
1004.000556,40.370495
1006.000556,40.370495
1007.999444,40.370495
1010.0,40.370495
1011.999167,40.271776
1013.999167,40.271776
1015.999167,40.271776
1017.998889,40.271776
1019.999444,40.271776
1021.998889,40.271776
1023.998889,40.271776
1025.998889,40.271776
1028.0,40.173056
1029.998889,40.173056
1031.999444,40.173056
1033.999722,40.173056
1035.999444,40.173056
1037.996389,40.173056
1039.999444,40.173056
1041.999722,40.173056
1044.0,40.173056
1045.998889,40.173056
1047.999722,40.074337
1049.999167,40.173056
1051.999444,40.074337
1053.999444,40.074337
1056.0,40.074337
1057.999167,40.074337
1059.999722,40.074337
1061.999722,40.074337
1063.999167,40.074337
1065.999167,40.074337
1067.999167,39.976585
1069.998889,40.074337
1071.999444,39.976585
1073.999167,40.074337
1075.998333,39.976585
1077.999167,39.976585
1079.999167,39.976585
1081.999444,39.976585
1083.999167,39.877865
1085.998889,39.877865
1087.999444,39.877865
1090.0,39.877865
1091.999444,39.877865
1093.999444,39.877865
1095.999722,39.877865
1097.999167,39.877865
1099.999167,39.877865
1101.999444,39.877865
1103.999722,39.877865
1106.0,39.779146
1107.999167,39.779146
1109.999167,39.779146
1111.998889,39.779146
1113.999444,39.779146
1116.000278,39.779146
1118.000278,39.779146
1119.999167,39.779146
1121.999444,39.779146
1124.0,39.779146
1125.999167,39.680426
1127.999167,39.680426
1129.999444,39.779146
1132.004722,39.680426
1133.999722,39.680426
1135.999444,39.680426
1137.999444,39.680426
1139.999444,39.680426
1141.999444,39.581707
1143.999444,39.680426
1146.0,39.581707
1147.999722,39.581707
1150.004444,39.581707
1151.999444,39.581707
1153.998611,39.581707
1155.998611,39.482987
1158.0,39.482987
1159.998889,39.384268
1161.999167,39.482987
1163.999722,39.384268
1165.999722,39.482987
1167.999444,39.482987
1169.999167,39.482987
1171.999167,39.482987
1173.998889,39.482987
1175.998611,39.482987
1177.998611,39.482987
1179.9975,39.482987
1181.998889,39.482987
1183.994722,39.482987
1185.996667,39.482987
1187.9975,39.482987
1189.996389,39.581707
1191.9975,39.581707
1193.997222,39.482987
1195.996944,39.482987
1197.998611,39.482987
1199.997222,39.384268
1201.996944,39.384268
1203.9975,39.482987
1205.997222,39.482987
1207.996944,39.482987
1209.997222,39.384268
1211.9975,39.482987
1213.996944,39.384268
1215.9975,39.384268
1217.997222,39.482987
1219.9975,39.384268
1221.9975,39.384268
1223.998889,39.384268
1225.9975,39.384268
1227.997778,39.384268
1229.997778,39.384268
1231.997222,39.384268
1233.997778,39.384268
1235.9975,39.384268
1237.998333,39.384268
1239.997222,39.384268
1241.998056,39.384268
1243.998333,39.384268
1245.997222,39.384268
1247.997222,39.384268
1249.998056,39.384268
1251.997778,39.384268
1253.996944,39.285548
1255.996944,39.384268
1257.997222,39.285548
1259.9975,39.285548
1261.9975,39.285548
1263.998056,39.285548
1265.998056,39.285548
1267.997778,39.285548
1269.998056,39.186829
1271.998056,39.285548
1273.997778,39.186829
1275.997778,39.186829
1277.997778,39.186829
1279.997778,39.285548
1281.997778,39.186829
1283.998056,39.186829
1285.9975,39.186829
1287.9975,39.186829
1289.997778,39.186829
1291.9975,39.186829
1293.9975,39.186829
1295.998056,39.088109
1297.998333,39.186829
1299.998333,39.088109
1301.997778,39.088109
1303.998611,39.088109
1305.9975,39.088109
1307.9975,39.088109
1309.998056,39.088109
1311.997778,38.989389
1313.998333,38.989389
1315.997778,39.088109
1317.998611,38.989389
1319.998333,38.989389
1321.997778,39.088109
1323.998056,38.989389
1325.997778,38.989389
1327.997778,38.989389
1329.996667,38.989389
1331.996944,38.989389
1333.9975,38.989389
1335.996667,38.89067
1337.995833,38.89067
1339.997222,38.89067
1341.996111,38.89067
1343.996111,38.89067
1345.995833,38.89067
1348.000833,38.79195
1350.001389,38.79195
1352.001389,38.89067
1354.001111,38.79195
1356.000833,38.79195
1358.001389,38.79195
1360.000833,38.79195
1362.001944,38.79195
1364.000833,38.79195
1366.001111,38.79195
1368.001389,38.693231
1369.997222,38.693231
1372.0,38.693231
1374.000556,38.693231
1376.001111,38.79195
1378.001111,38.693231
1380.000556,38.693231
1382.001667,38.693231
1384.000833,38.693231
1386.000833,38.693231
1388.000833,38.693231
1390.000833,38.594511
1392.001111,38.594511
1394.001944,38.693231
1396.001389,38.594511
1398.000833,38.594511
1400.001111,38.594511
1402.001111,38.594511
1404.001111,38.594511
1406.000833,38.594511
1408.000556,38.495792
1410.001111,38.495792
1412.001111,38.594511
1414.001111,38.495792
1416.001111,38.594511
1418.000833,38.397072
1420.001944,38.495792
1422.001111,38.495792
1424.001389,38.495792
1426.001111,38.693231
1428.001111,38.693231
1430.000833,38.594511
1432.000556,38.397072
1434.000833,38.397072
1436.001111,38.594511
1438.001111,38.594511
1440.001667,38.397072
1442.001111,38.397072
1444.000556,38.397072
1446.000833,38.397072
1448.000556,38.693231
1450.000556,38.594511
1452.006944,38.397072
1454.000833,38.397072
1456.000833,38.397072
1458.000833,38.397072
1460.001111,38.397072
1462.000556,38.397072
1464.000833,38.397072
1466.000833,38.397072
1468.000278,38.397072
1470.000833,38.397072
1472.001389,38.397072
1474.000833,38.397072
1476.0,38.397072
1478.000278,38.298353
1480.001389,38.397072
1482.001111,38.298353
1484.000556,38.298353
1486.000556,38.298353
1488.001389,38.298353
1490.001389,38.298353
1492.000833,38.298353
1494.000556,38.298353
1496.001111,38.298353
1498.001111,38.298353
1500.001111,38.298353
1502.000833,38.199633
1504.001111,38.199633
1506.001111,38.199633
1508.000556,38.199633
1510.001111,38.199633
1512.001389,38.199633
1514.000556,38.199633
1516.001111,38.298353
1518.001389,38.298353
1520.001111,38.199633
1522.001389,38.199633
1524.001111,38.199633
1526.001944,38.100913
1528.000833,38.199633
1530.001389,38.100913
1532.000556,38.100913
1534.001111,38.100913
1536.000556,38.100913
1538.001111,38.100913
1540.001111,38.100913
1542.000556,38.100913
1544.001389,38.100913
1546.001389,38.100913
1548.001111,38.495792
1550.001111,38.594511
1552.001667,38.495792
1554.001389,38.397072
1556.000833,38.397072
1558.001389,38.298353
1560.000833,38.298353
1562.001111,38.298353
1564.001389,38.199633
1566.000556,38.199633
1568.000833,38.199633
1570.001111,38.199633
1572.001111,38.199633
1574.001389,38.199633
1576.001111,38.100913
1578.001111,38.100913
1580.001389,38.100913
1582.001944,37.903474
1584.000556,38.002194
1586.001389,38.100913
1588.0,37.903474
1592.001389,38.495792
1594.000833,38.397072
1596.001667,38.397072
1598.001389,38.397072
1600.000556,38.397072
1602.000833,38.298353
1604.001389,38.298353
1606.001111,38.199633
1608.001667,38.199633
1610.000833,38.199633
1612.001111,38.199633
1614.001389,38.199633
1616.001667,38.100913
1618.000833,38.100913
1620.000556,38.002194
1622.000833,38.002194
1624.000833,37.903474
1625.999167,37.804755
1628.005278,37.804755
1629.999444,37.706035
1631.998611,37.607316
1633.998611,37.508596
1635.998333,37.409877
1637.9975,37.409877
1639.997778,37.311157
1641.9975,37.311157
1643.996667,37.212438
1645.997222,37.212438
1647.997222,37.113718
1649.997222,37.113718
1651.998056,37.014998
1653.997222,37.014998
1655.996944,37.014998
1657.9975,37.014998
1659.998333,37.409877
1661.998333,38.100913
1663.993889,38.693231
1665.997778,39.186829
1667.996667,38.89067
1669.997222,38.594511
1671.997222,38.397072
1673.997222,38.199633
1675.997222,38.002194
1677.9975,37.903474
1679.9975,37.804755
1681.997778,37.607316
1683.994167,37.508596
1685.994167,37.409877
1687.997222,37.311157
1689.997222,37.311157
1691.997222,37.212438
1693.997778,37.212438
1695.997778,37.212438
1697.9975,37.212438
1699.997222,37.212438
1701.997222,37.113718
1703.9975,37.113718
1705.9975,37.113718
1707.997222,37.113718
1709.9975,36.62012
1711.997778,36.71884
1713.997778,36.62012
1715.997778,36.71884
1717.997778,36.62012
1719.998056,36.62012
1721.9975,36.62012
1723.9975,36.62012
1725.998056,36.62012
1727.997778,36.62012
1729.997222,36.62012
1731.9975,36.62012
1733.995833,36.62012
1735.997778,36.522369
1737.9975,36.62012
1739.997778,36.62012
1741.997778,36.522369
1743.9975,36.522369
1745.996667,36.522369
1747.997778,36.522369
1749.997222,36.522369
1751.9975,36.522369
1753.997778,36.522369
1755.997778,36.423649
1757.998056,36.62012
1759.997222,36.62012
1761.9975,36.423649
1763.997778,36.423649
1765.9975,36.423649
1767.997778,36.423649
1769.997222,36.423649
1771.997222,36.423649
1773.997778,36.423649
1775.9975,36.423649
1777.998056,36.423649
1779.997778,36.423649
1781.997222,36.423649
1783.998056,36.423649
1785.997222,36.423649
1787.998333,36.423649
1789.997778,36.423649
1791.9975,36.423649
1793.997222,36.22621
1795.996944,36.423649
1797.998056,36.324929
1799.996389,36.324929
1801.996111,36.324929
1803.996111,36.324929
1806.001667,36.324929
1808.001944,36.324929
1810.001389,36.22621
1812.001667,36.22621
1814.001667,36.62012
1816.001944,36.22621
1818.001111,36.22621
1820.001389,36.22621
1822.001944,36.22621
1824.002222,36.12749
1826.001667,36.12749
1828.001667,36.22621
1830.001667,36.12749
1832.001111,36.12749
1834.001111,36.12749
1836.001389,36.12749
1838.001111,36.12749
1840.001667,36.028771
1842.001389,36.028771
1844.001667,36.028771
1846.001667,36.12749
1848.001944,36.028771
1850.000833,36.028771
1852.001667,36.028771
1854.001667,36.028771
1856.001944,36.028771
1858.001667,37.706035
1860.001944,40.271776
1861.993889,39.581707
1864.002222,38.89067
1866.001667,38.397072
1868.001389,38.199633
1869.996111,37.903474
1872.002222,37.706035
1873.999167,37.508596
1876.002222,37.409877
1878.001111,37.212438
1880.002222,37.113718
1882.001944,37.014998
1884.001389,36.916279
1886.001667,36.817559
1888.001944,36.817559
1890.002222,36.71884
1892.001944,36.62012
1894.002222,36.62012
1896.001944,36.522369
1898.0025,36.522369
1900.002222,36.423649
1902.002222,36.423649
1904.001667,36.423649
1906.001944,36.324929
1908.001944,36.22621
1910.001667,36.22621
1912.0025,36.22621
1914.001944,36.12749
1916.002778,36.12749
1918.0025,36.12749
1920.002222,36.028771
1922.001944,36.028771
1924.001667,36.028771
1926.001667,35.930051
