time,pressure
0.0,83.425288
0.083333,83.076866
0.166667,82.728444
0.25,82.428414
0.333333,82.079993
0.416667,81.808998
0.5,81.538003
0.583056,81.237973
0.666389,80.889551
0.749722,80.454023
0.833056,80.124958
0.916389,79.795893
0.999722,79.486185
1.083056,79.166798
1.166389,78.799019
1.249722,78.537703
1.333056,78.276386
1.416111,78.024748
1.499444,77.802145
1.582778,77.482759
1.666111,77.260156
1.749444,77.037553
1.832778,76.785915
1.916111,76.563312
1.999444,76.282639
2.082778,76.060036
2.165833,75.818076
2.249167,75.61483
2.3325,75.363192
2.415833,75.07284
2.499167,74.859916
2.5825,74.627634
2.665833,74.395353
2.749167,74.17275
2.8325,73.882399
2.915833,73.669474
2.998889,73.427514
3.082222,73.204911
3.165556,73.030701
3.248889,72.837133
3.332222,72.575816
3.415556,72.304821
3.498889,72.043505
3.582222,71.782189
3.665556,71.482159
3.748611,71.240199
3.831944,70.998239
3.915278,70.75628
3.998611,70.465928
4.081944,70.21429
4.165278,69.97233
4.248611,69.749727
4.331944,69.527124
4.415278,69.227094
4.498333,68.994813
4.581667,68.77221
4.665,68.559286
4.748333,68.278612
4.831667,68.05601
4.915,67.843085
4.998333,67.63016
5.081667,67.417236
5.165,67.155919
5.248333,66.942995
5.331389,66.73007
5.414722,66.526824
5.498056,66.323578
5.581389,66.07194
5.664722,65.868694
5.748056,65.684805
5.831389,65.500915
5.914722,65.278312
5.998056,65.094423
6.081111,64.92989
6.164444,64.765358
6.247778,64.610504
6.331111,64.407258
6.414444,64.242725
6.497778,64.097549
6.581111,63.942695
6.664444,63.807198
6.747778,63.623308
6.830833,63.487811
6.914167,63.352313
6.9975,63.216816
7.080833,63.052283
7.164167,62.926464
7.2475,62.810324
7.330833,62.684505
7.414167,62.558686
7.4975,62.403831
7.580833,62.307048
7.663889,62.200585
7.747222,62.084445
7.830556,61.958626
7.913889,61.861842
7.997222,61.765058
8.080556,61.668274
8.163889,61.57149
8.247222,61.455349
8.330556,61.358566
8.413611,61.261782
8.496944,61.174676
8.580278,61.087571
8.663611,60.97143
8.746944,60.894003
8.830278,60.826254
8.913611,60.758506
8.996944,60.690757
9.075278,60.623008
9.081667,60.623008
9.164722,60.574616
9.248056,60.516546
9.331389,60.458476
9.414722,60.400405
9.498056,60.342335
9.581389,60.284265
9.664722,60.226194
9.747778,60.148767
9.831111,60.100375
9.914444,60.042305
9.997778,59.993913
10.081111,59.945521
10.164444,59.887451
10.247778,59.819702
10.331111,59.761632
10.414444,59.71324
10.4975,59.655169
10.580833,59.616456
10.664167,59.558386
10.7475,59.509994
10.830833,59.480958
10.914167,59.432567
10.9975,59.403531
11.080833,59.384175
11.164167,59.355139
11.2475,59.335783
11.330556,59.297069
11.413889,59.268034
11.497222,59.248677
11.580556,59.209964
11.663889,59.180928
11.747222,59.122858
11.830556,59.103501
11.913889,59.064788
11.997222,59.026074
12.080278,58.987361
12.163611,58.958326
12.246944,58.919612
12.330278,58.880898
12.413611,58.851863
12.496944,58.793793
12.580278,58.764758
12.663611,58.735723
12.746944,58.706687
12.83,58.648617
12.913333,58.619582
12.996667,58.561512
13.08,58.542155
13.163333,58.503441
13.246667,58.455049
13.33,58.426014
13.413333,58.387301
13.496667,58.348587
13.58,58.290517
13.663056,58.27116
13.746389,58.21309
13.829722,58.164698
13.913056,58.135663
13.996389,58.087271
14.079722,58.048557
14.163056,58.009844
14.246389,57.980808
14.329722,57.942095
14.412778,57.893703
14.496111,57.854989
14.579444,57.816276
14.662778,57.777562
14.746111,57.748527
14.829444,57.700135
14.912778,57.6711
14.996111,57.622708
15.079444,57.583995
15.1625,57.554959
15.245833,57.516246
15.329167,57.487211
15.4125,57.448497
15.495833,57.419462
15.579167,57.390427
15.6625,57.37107
15.745833,57.332356
15.829167,57.293643
15.9125,57.264608
15.995556,57.235573
16.078889,57.216216
16.162222,57.187181
16.245556,57.167824
16.328889,57.12911
16.412222,57.109754
16.495556,57.080718
16.578889,57.042005
16.662222,57.022648
16.745278,56.993613
16.828611,56.964578
16.911944,56.945221
16.995278,56.925864
17.078611,56.887151
17.161944,56.867794
17.245278,56.848437
17.328611,56.82908
17.411944,56.800045
17.495,56.77101
17.578333,56.741975
17.661667,56.71294
17.745,56.693583
17.828333,56.674226
17.911667,56.635513
17.995,56.616156
18.078333,56.596799
18.161667,56.577442
18.245,56.538729
18.328056,56.519372
18.411389,56.500015
18.494722,56.47098
18.578056,56.441945
18.661389,56.422588
18.744722,56.403231
18.828056,56.383875
18.911389,56.364518
18.994722,56.345161
19.077778,56.316126
19.161111,56.296769
19.244444,56.277412
19.327778,56.258056
19.411111,56.219342
19.494444,56.199985
19.577778,56.17095
19.661111,56.141915
19.744444,56.122558
19.827778,56.103201
19.910833,56.083845
19.994167,56.064488
20.0775,56.035453
20.160833,56.025774
20.244167,55.996739
20.3275,55.987061
20.410833,55.958026
20.494167,55.938669
20.5775,55.919312
20.660556,55.880598
20.743889,55.851563
20.827222,55.822528
20.910556,55.81285
20.993889,55.774136
21.077222,55.754779
21.160556,55.735423
21.243889,55.706387
21.327222,55.696709
21.410278,55.667674
21.493611,55.648317
21.576944,55.619282
21.660278,55.609604
21.743611,55.590247
21.826944,55.561212
21.910278,55.541855
21.993611,55.522498
22.076944,55.503141
22.160278,55.474106
22.243333,55.454749
22.326667,55.435393
22.41,55.416036
22.493333,55.396679
22.576667,55.367644
22.66,55.348287
22.743333,55.338609
22.826667,55.309574
22.91,55.290217
22.993056,55.241825
23.076389,55.222468
23.159722,55.203111
23.243056,55.193433
23.326389,55.164398
23.409722,55.145041
23.493056,55.125684
23.576389,55.106327
23.659722,55.086971
23.742778,55.057936
23.826111,55.038579
23.909444,55.009544
23.992778,54.990187
24.076111,54.97083
24.159444,54.941795
24.242778,54.91276
24.326111,54.893403
24.409444,54.864368
24.492778,54.835333
24.575833,54.815976
24.659167,54.786941
24.7425,54.757906
24.825833,54.72887
24.909167,54.690157
24.9925,54.641765
25.075833,54.61273
25.159167,54.583695
25.2425,54.544981
25.325556,54.506267
25.408889,54.467554
25.492222,54.419162
25.575556,54.37077
25.658889,54.303021
25.742222,54.254629
25.825556,54.206237
25.908889,54.167524
25.992222,54.12881
26.075556,54.07074
26.158611,54.022348
26.241944,53.964278
26.325278,53.944921
26.408611,53.906207
26.491944,53.877172
26.575278,53.848137
26.658611,53.819102
26.741944,53.780388
26.825278,53.741675
26.908333,53.731996
26.991667,53.702961
27.075,53.683605
27.158333,53.673926
27.241667,53.635213
27.325,53.635213
27.408333,53.625534
27.491667,53.625534
27.575,53.615856
27.658333,53.625534
27.741389,53.615856
27.824722,53.635213
27.908056,53.615856
27.991389,53.615856
28.074722,53.596499
28.158056,53.596499
28.241389,53.606177
28.324722,53.596499
28.408056,53.586821
28.491111,53.567464
28.574444,53.557785
28.657778,53.538429
28.741111,53.519072
28.824444,53.519072
28.907778,53.509394
28.991111,53.490037
29.074444,53.461002
29.157778,53.441645
29.240833,53.431966
29.324167,53.41261
29.4075,53.383575
29.490833,53.373896
29.574167,53.364218
29.6575,53.344861
29.740833,53.335183
29.824167,53.325504
29.9075,53.306147
29.990833,53.296469
30.004722,53.296469
30.087778,53.267434
30.170833,53.257755
30.254167,53.248077
30.3375,53.238399
30.420833,53.209364
30.504167,53.209364
30.5875,53.190007
30.670833,53.17065
30.754167,53.160972
30.8375,53.160972
30.920833,53.131936
31.003889,53.122258
31.087222,53.102901
31.170556,53.093223
31.253889,53.073866
31.337222,53.054509
31.420556,53.035153
31.503889,53.015796
31.587222,52.996439
31.670556,52.986761
31.753611,52.967404
31.836944,52.948047
31.920278,52.938369
32.003611,52.909334
32.086944,52.899655
32.170278,52.880298
32.253611,52.860942
32.336944,52.851263
32.420278,52.822228
32.503333,52.81255
32.586667,52.793193
32.67,52.783515
32.674167,52.783515
32.679167,52.783515
32.7625,52.764158
32.834444,52.764158
32.9175,52.754479
32.951111,52.754479
33.034444,52.754479
33.091667,52.744801
33.174722,52.754479
33.190833,52.764158
33.273889,52.754479
33.357222,52.783515
33.440278,52.773836
33.523611,52.773836
33.606944,52.802871
33.690278,52.87062
33.773611,52.92869
33.856944,53.006117
33.940278,53.083545
34.023611,53.151293
34.106944,53.209364
34.190278,53.257755
34.273333,53.306147
34.356667,53.364218
34.44,53.402931
34.523333,53.441645
34.606667,53.490037
34.69,53.519072
34.773333,53.52875
34.856667,53.52875
34.94,53.52875
35.023056,53.52875
35.106389,53.519072
35.189722,53.509394
35.273056,53.509394
35.356389,53.490037
35.439722,53.461002
35.523056,53.41261
35.606389,53.364218
35.689722,53.344861
35.772778,53.315826
35.856111,53.267434
35.939444,53.22872
36.022778,53.219042
36.106111,53.180328
36.189444,53.160972
36.272778,53.131936
36.356111,53.102901
36.439444,53.083545
36.522778,53.073866
36.605833,53.044831
36.689167,53.006117
36.7725,52.986761
36.855833,52.986761
36.939167,52.967404
37.0225,52.938369
37.105833,52.92869
37.189167,52.899655
37.2725,52.880298
37.355556,52.87062
37.438889,52.822228
37.522222,52.793193
37.605556,52.793193
37.688889,52.764158
37.772222,52.744801
37.855556,52.715766
37.938889,52.686731
38.022222,52.677052
38.105556,52.648017
38.188611,52.648017
38.271944,52.618982
38.355278,52.609304
38.438611,52.580268
38.521944,52.57059
38.605278,52.551233
38.688611,52.522198
38.771944,52.522198
38.855278,52.502841
38.938333,52.493163
39.021667,52.464128
39.105,52.464128
39.188333,52.435093
39.271667,52.425414
39.355,52.425414
39.438333,52.396379
39.521667,52.386701
39.605,52.367344
39.688056,52.357665
39.771389,52.357665
39.854722,52.357665
39.938056,52.357665
40.021389,52.347987
40.104722,52.338309
40.188056,52.318952
40.271389,52.309274
40.354722,52.318952
40.438056,52.309274
40.521111,52.318952
40.604444,52.289917
40.687778,52.280238
40.771111,52.280238
40.854444,52.260882
40.937778,52.260882
41.021111,52.260882
41.104444,52.231846
41.187778,52.21249
41.270833,52.21249
41.354167,52.193133
41.4375,52.202811
41.520833,52.193133
41.604167,52.193133
41.6875,52.173776
41.770833,52.154419
41.854167,52.144741
41.9375,52.144741
42.020556,52.135063
42.103889,52.106027
42.187222,52.086671
42.270556,52.076992
42.353889,52.057635
42.437222,52.057635
42.520556,52.038279
42.603889,52.018922
42.687222,52.018922
42.770556,51.989887
42.853611,51.980208
42.936944,51.97053
43.020278,51.960852
43.103611,51.951173
43.186944,51.931816
43.270278,51.91246
43.353611,51.91246
43.436944,51.893103
43.520278,51.883425
43.603333,51.873746
43.686667,51.854389
43.77,51.844711
43.853333,51.835033
43.936667,51.815676
44.02,51.805997
44.103333,51.796319
44.186667,51.805997
44.27,51.805997
44.353333,51.825354
44.436389,51.844711
44.519722,51.864068
44.603056,51.883425
44.686389,51.893103
44.769722,51.91246
44.853056,51.931816
44.936389,51.960852
45.019722,51.97053
45.103056,51.989887
45.186111,51.989887
45.269444,51.97053
45.352778,51.960852
45.436111,51.922138
45.519444,51.91246
45.602778,51.893103
45.686111,51.883425
45.769444,51.873746
45.852778,51.844711
45.936111,51.835033
46.019167,51.805997
46.1025,51.786641
46.185833,51.786641
46.269167,51.776962
46.3525,51.776962
46.435833,51.767284
46.519167,51.747927
46.6025,51.747927
46.685833,51.738249
46.768889,51.72857
46.852222,51.718892
46.935556,51.709214
47.018889,51.709214
47.102222,51.689857
47.185556,51.6705
47.268889,51.651143
47.352222,51.622108
47.435556,51.602751
47.518889,51.593073
47.601944,51.564038
47.685278,51.554359
47.768611,51.535003
47.851944,51.525324
47.935278,51.505967
48.018611,51.486611
48.101944,51.476932
48.185278,51.457575
48.268611,51.447897
48.351667,51.42854
48.435,51.418862
48.518333,51.418862
48.601667,51.399505
48.685,51.399505
48.768333,51.389827
48.851667,51.380148
48.935,51.37047
49.018333,51.167224
49.101667,50.934943
49.184722,50.780088
49.268056,50.605877
49.351389,50.460702
49.434722,50.334883
49.518056,50.209064
49.601389,50.141315
49.684722,50.054209
49.768056,49.967104
49.851389,49.879998
49.934444,49.792893
50.017778,49.734823
50.101111,49.696109
50.184444,49.657395
50.267778,49.618682
50.351111,49.609004
50.434444,49.686431
50.517778,49.81225
50.601111,49.967104
50.684444,50.141315
50.7675,50.286491
50.850833,50.421988
50.934167,50.547807
51.0175,50.683304
51.100833,50.82848
51.184167,50.944621
51.2675,51.060762
51.350833,51.167224
51.434167,51.273686
51.5175,51.380148
51.600556,51.457575
51.683889,51.544681
51.767222,51.622108
51.850556,51.709214
51.933889,51.786641
52.017222,51.854389
52.100556,51.91246
52.183889,51.97053
52.267222,52.057635
52.350278,52.086671
52.433611,52.115706
52.516944,52.135063
52.600278,52.144741
52.683611,52.173776
52.766944,52.21249
52.850278,52.231846
52.933611,52.27056
53.016944,52.289917
53.100278,52.299595
53.183333,52.32863
53.266667,52.32863
53.35,52.357665
53.433333,52.386701
53.516667,52.386701
53.6,52.415736
53.683333,52.425414
53.766667,52.454449
53.85,52.464128
53.933056,52.502841
54.016389,52.522198
54.099722,52.522198
54.183056,52.531876
54.266389,52.551233
54.349722,52.57059
54.433056,52.580268
54.516389,52.589947
54.599722,52.618982
54.683056,52.638339
54.766111,52.648017
54.849444,52.657695
54.932778,52.657695
55.016111,52.677052
55.099444,52.667374
55.182778,52.686731
55.266111,52.686731
55.349444,52.677052
55.432778,52.677052
55.516111,52.677052
55.599167,52.677052
55.6825,52.667374
55.765833,52.667374
55.849167,52.667374
55.9325,52.667374
56.015833,52.638339
56.099167,52.62866
56.1825,52.62866
56.265833,52.609304
56.348889,52.580268
56.432222,52.551233
56.515556,52.522198
56.598889,52.502841
56.682222,52.483485
56.765556,52.473806
56.848889,52.464128
56.932222,52.454449
57.015556,52.435093
57.098889,52.406057
57.181944,52.32863
57.265278,52.260882
57.348611,52.164098
57.431944,52.076992
57.515278,52.009244
57.598611,51.951173
57.681944,51.883425
57.765278,51.815676
57.848611,51.786641
57.931667,51.738249
58.015,51.709214
58.098333,51.6705
58.181667,51.622108
58.265,51.593073
58.348333,51.554359
58.431667,51.544681
58.515,51.496289
58.598333,51.360792
58.681667,51.254329
58.764722,51.234973
58.848056,51.264008
58.931389,51.293043
59.014722,51.3124
59.098056,51.351113
59.181389,51.389827
59.264722,51.42854
59.348056,51.486611
59.431389,51.525324
59.514722,51.573716
59.597778,51.61243
59.681111,51.660822
59.764444,51.699535
59.847778,51.718892
59.931111,51.738249
60.014444,51.747927
60.097778,51.747927
60.181111,51.718892
60.264444,51.699535
60.3475,51.680178
60.430833,51.660822
60.514167,51.660822
60.5975,51.6705
60.680833,51.680178
60.764167,51.709214
60.8475,51.718892
60.930833,51.757605
61.014167,51.786641
61.0975,51.815676
61.180556,51.844711
61.263889,51.873746
61.347222,51.91246
61.430556,51.931816
61.513889,51.960852
61.597222,51.989887
61.680556,51.999565
61.763889,52.009244
61.847222,52.0286
61.930278,52.038279
62.013611,52.038279
62.096944,52.047957
62.180278,52.057635
62.263611,52.067314
62.346944,52.067314
62.430278,52.076992
62.513611,52.076992
62.596944,52.096349
62.680278,52.096349
62.763333,52.096349
62.846667,52.106027
62.93,52.125384
63.013333,52.144741
63.096667,52.164098
63.18,52.183455
63.263333,52.202811
63.346667,52.21249
63.43,52.222168
63.513056,52.231846
63.596389,52.251203
63.679722,52.260882
63.763056,52.251203
63.846389,52.251203
63.929722,52.251203
64.013056,52.251203
64.096389,52.231846
64.179722,52.231846
64.263056,52.231846
64.346111,52.231846
64.429444,52.231846
64.512778,52.231846
64.596111,52.231846
64.679444,52.231846
64.762778,52.231846
64.846111,52.251203
64.929444,52.251203
65.012778,52.260882
65.095833,52.260882
65.179167,52.260882
65.2625,52.260882
65.345833,52.260882
65.429167,52.260882
65.5125,52.260882
65.595833,52.260882
65.679167,52.260882
65.7625,52.183455
65.845833,52.144741
65.928889,52.076992
66.012222,52.0286
66.095556,51.931816
66.178889,51.854389
66.262222,51.854389
66.345556,51.844711
66.428889,51.854389
66.512222,51.854389
66.595556,51.873746
66.678611,51.883425
66.761944,51.893103
66.845278,51.922138
66.928611,51.922138
67.011944,51.960852
67.095278,51.97053
67.178611,51.999565
67.261944,52.009244
67.345278,52.009244
67.428611,52.018922
67.511667,52.0286
67.595,52.0286
67.678333,52.009244
67.761667,52.009244
67.845,51.999565
67.928333,51.999565
68.011667,51.989887
68.095,51.951173
68.178333,51.844711
68.261667,51.747927
68.344722,51.6705
68.428056,51.283364
68.511389,50.867194
68.594722,50.557485
68.678056,50.334883
68.761389,50.150993
68.806667,50.054209
68.89,49.850963
68.973333,49.705787
69.056389,49.667074
69.139722,49.802571
69.223056,49.947747
69.306389,50.102601
69.389722,50.257455
69.473056,50.392953
69.556389,50.538129
69.639722,50.673626
69.723056,50.838159
69.806389,50.973656
69.889444,51.099475
69.972778,51.225294
70.056111,51.389827
70.139444,51.486611
70.222778,51.583395
70.306111,51.699535
70.389444,51.796319
70.472778,51.91246
70.556111,51.999565
70.639167,52.096349
70.7225,52.173776
70.805833,52.222168
70.889167,52.318952
70.9725,52.377022
71.055833,52.454449
71.139167,52.493163
71.2225,52.551233
71.305833,52.589947
71.389167,52.657695
71.472222,52.696409
71.555556,52.715766
71.638889,52.725444
71.722222,52.725444
71.805556,52.744801
71.888889,52.754479
71.972222,52.764158
72.055556,52.764158
72.138889,52.773836
72.221944,52.773836
72.305278,52.725444
72.388611,52.686731
72.471944,52.657695
72.555278,52.609304
72.638611,52.57059
72.721944,52.522198
72.805278,52.502841
72.888611,52.483485
72.971944,52.473806
73.055,52.454449
73.138333,52.444771
73.221667,52.406057
73.305,52.318952
73.388333,52.251203
73.471667,52.183455
73.555,52.125384
73.638333,52.057635
73.721667,51.989887
73.804722,51.931816
73.888056,51.902781
73.971389,51.873746
74.054722,51.854389
74.138056,51.91246
74.221389,51.951173
74.304722,52.038279
74.388056,52.106027
74.471389,52.173776
74.554722,52.260882
74.637778,52.338309
74.721111,52.406057
74.804444,52.473806
74.887778,52.483485
74.971111,52.502841
75.054444,52.531876
75.137778,52.493163
75.221111,52.464128
75.304444,52.377022
75.387778,52.231846
75.470833,52.125384
75.554167,52.038279
75.6375,51.931816
75.720833,51.835033
75.804167,51.796319
75.8875,51.835033
75.970833,51.883425
76.054167,51.960852
76.1225,51.999565
76.122778,51.999565
76.189167,52.396379
76.355833,53.190007
76.5225,53.702961
76.689167,54.254629
76.855833,54.680478
76.995833,55.019222
76.997222,55.019222
77.080556,54.767584
77.163889,54.622408
77.247222,54.593373
77.330556,54.496589
77.413889,54.177202
77.497222,53.848137
77.580556,53.47068
77.663889,53.209364
77.747222,52.967404
77.830278,52.744801
77.913611,52.386701
77.996944,52.125384
78.080278,51.864068
78.0875,51.864068
78.087778,51.805997
78.088056,51.805997
78.088333,51.805997
78.088611,51.805997
78.088889,51.805997
78.089167,51.805997
78.338889,53.006117
78.339167,53.006117
78.505833,53.567464
78.672222,53.964278
78.838889,54.390127
78.998056,54.72887
78.999444,54.72887
79.082778,54.574016
79.166111,54.390127
79.249444,54.090097
79.3325,53.606177
79.415833,53.277112
79.499167,52.977082
79.5825,52.706087
79.665833,52.396379
79.749167,52.154419
79.8325,51.931816
79.86,51.815676
79.860278,51.815676
79.860556,51.815676
79.860833,51.815676
79.861111,51.815676
79.861389,51.815676
79.861667,51.815676
80.111389,53.083545
80.111667,53.083545
80.278333,53.673926
80.445,54.119132
80.611667,54.515946
80.706944,54.757906
80.708333,54.757906
80.791667,54.593373
80.874722,54.42884
80.958056,54.138489
81.041389,53.77071
81.093889,53.364218
81.177222,53.093223
81.260556,52.831906
81.343889,52.62866
81.427222,52.357665
81.510556,52.164098
81.593889,51.999565
81.660278,51.854389
81.660556,51.805997
81.660833,51.805997
81.661111,51.805997
81.661389,51.805997
81.661667,51.805997
81.661944,51.805997
81.662222,51.805997
81.911667,53.131936
81.911944,53.131936
82.078611,53.77071
82.245278,54.254629
82.411944,54.709514
82.428611,54.757906
82.43,54.757906
82.513333,54.603051
82.596389,54.467554
82.679722,54.303021
82.763056,54.041705
82.846389,53.673926
82.929722,53.41261
83.013056,53.180328
83.096389,52.967404
83.179722,52.715766
83.263056,52.522198
83.346389,52.357665
83.429444,52.173776
83.512778,51.980208
83.589167,51.854389
83.589444,51.815676
83.589722,51.815676
83.59,51.815676
83.590278,51.815676
83.590556,51.815676
83.590833,51.815676
