time,pressure
0.0,166.714673
0.247222,166.104935
0.474167,165.437126
0.8325,164.343468
1.031667,163.743408
1.262222,163.056243
1.476667,162.359399
1.833889,161.168957
2.049722,160.462435
2.309444,159.610737
2.656111,158.459009
2.886944,157.694416
3.113333,156.958859
3.325,156.252336
3.643889,155.178035
3.922778,154.239232
4.154722,153.445604
4.376111,152.719725
4.706667,151.577675
4.931944,150.784048
5.153611,150.038812
5.385833,149.235506
5.715278,148.219275
5.938889,147.512753
6.184722,146.757839
6.425556,146.041638
6.756667,145.054442
7.006667,144.357599
7.225833,143.74786
7.443611,143.176835
7.636667,143.176835
7.711389,143.176835
7.822778,142.160605
8.059444,141.560545
8.277222,140.979841
8.5225,140.33139
8.896667,139.411943
9.129167,138.840918
9.331111,138.356999
9.673333,137.534336
9.718611,137.534336
9.958889,136.885884
10.195556,136.343894
10.429444,135.830939
10.784722,135.095382
11.013056,134.611463
11.236944,134.098508
11.448056,133.662981
11.79,132.966137
12.020278,132.966137
12.023611,132.511253
12.261389,132.017655
12.483333,131.562771
12.865833,130.84657
13.087222,130.469113
13.349722,129.985194
13.731944,129.298028
13.961667,129.298028
13.966111,128.901214
14.196389,128.5044
14.405,128.1463
14.763889,127.54624
14.985556,127.18814
15.215833,126.801004
15.443611,126.442904
15.766667,125.900914
15.984722,125.533135
16.220833,125.533135
16.224167,125.146
16.448333,124.7879
16.793056,124.274945
17.018056,123.926523
17.281389,123.539388
17.499444,123.220001
17.869444,122.658654
18.239444,122.658654
18.305833,122.039238
18.662778,121.506926
18.904167,121.168183
19.126389,120.848796
19.330278,120.568123
19.666667,120.093882
19.916389,119.74546
20.160556,119.416395
20.389167,119.416395
20.3925,119.116365
20.750556,118.642124
21.013056,118.293702
21.259167,118.00335
21.469722,117.800104
21.817778,117.471039
22.091667,117.180687
22.367222,117.180687
22.371667,116.890336
22.72,116.532235
22.970278,116.270919
23.212778,116.028959
23.460278,115.767643
23.811389,115.409542
24.040833,115.119191
24.259444,114.809482
24.722222,114.809482
24.922222,116.599984
25.799722,114.993372
26.070833,114.596558
26.296111,114.238458
26.637778,114.238458
26.641944,113.74486
26.93,113.357724
27.208889,112.999624
27.444722,112.699594
27.766667,112.30278
28.015278,112.031785
28.291667,111.712399
28.516389,111.480117
28.850833,111.480117
28.854167,111.112339
29.106667,110.831665
29.352778,110.570349
29.700833,110.20257
29.965,109.96061
30.193056,109.738008
30.405833,109.54444
30.774444,109.176661
30.893333,109.176661
31.029722,108.934701
31.321111,108.64435
31.660278,108.324963
31.919722,108.083003
32.171389,107.879757
32.396111,107.657154
32.751944,107.347446
33.000278,107.134521
33.228056,107.134521
33.231111,106.940954
33.461667,106.757064
33.8175,106.476391
34.059444,106.282823
34.321944,106.069899
34.666944,105.798904
34.895278,105.634371
35.134722,105.634371
35.138889,105.440804
35.373611,105.266593
35.726111,105.005276
35.9525,104.80203
36.217778,104.589106
36.479722,104.405216
36.802222,104.163257
37.032778,103.998724
37.258889,103.998724
37.262222,103.824513
37.492222,103.689016
37.849444,103.456734
38.067778,103.292202
38.296667,103.156704
38.658056,102.924423
38.915833,102.740534
39.142778,102.605036
39.277222,102.605036
39.385556,102.430825
39.711667,102.208222
39.975278,102.04369
40.228056,101.888836
40.470556,101.724303
40.811944,101.530735
41.0625,101.366203
41.300833,101.211348
41.628333,101.211348
41.639722,101.037138
41.856944,100.911318
42.080278,100.746786
42.335833,100.60161
42.675833,100.408042
42.941111,100.24351
43.185278,100.098334
43.386111,100.098334
43.390556,99.991872
43.761389,99.75959
44.015,99.614415
44.265278,99.469239
44.487222,99.333741
44.835833,99.130495
45.068056,98.994998
45.3225,98.8595
45.643333,98.8595
45.646667,98.685289
45.869722,98.55947
46.086667,98.453008
46.306111,98.327189
46.517778,98.20137
46.884444,98.007802
47.126389,97.872305
47.341944,97.746486
47.680278,97.746486
47.721111,97.54324
47.965833,97.407742
48.224167,97.262567
48.448889,97.136747
48.773611,96.972215
49.011944,96.856074
49.255278,96.720577
49.8275,96.430225
50.022222,96.430225
50.072222,96.275371
50.333056,96.139874
50.669167,95.975341
50.924444,95.8592
51.1525,95.733381
51.395278,95.617241
51.738056,95.452708
51.984722,95.452708
51.988889,95.326889
52.255556,95.181713
52.488611,95.065573
52.831944,94.891362
53.051667,94.784899
53.2925,94.668759
53.51,94.562296
53.872222,94.388086
54.1175,94.388086
54.120833,94.271945
54.352778,94.165483
54.688889,94.00095
54.935833,93.884809
55.171389,93.75899
55.4375,93.633171
55.788611,93.478317
56.041111,93.478317
56.045556,93.362176
56.269722,93.255714
56.508889,93.15893
56.846111,93.013755
57.086667,92.907292
57.318333,92.820187
57.648056,92.665333
57.916667,92.55887
58.1475,92.471765
58.385278,92.471765
58.388611,92.365303
58.743333,92.229805
58.991944,92.123343
59.209167,92.036237
59.446667,91.949132
59.777222,91.794278
60.040833,91.707172
60.278889,91.707172
60.283333,91.610388
60.515556,91.513605
60.860278,91.397464
61.053056,91.30068
61.2925,91.223253
61.656111,91.068399
61.886667,90.981293
62.100833,90.894188
62.338056,90.816761
62.668611,90.816761
62.676667,90.690942
62.950833,90.594158
63.183333,90.526409
63.406389,90.448982
63.758333,90.313484
64.015833,90.216701
64.244444,90.119917
64.510278,90.119917
64.518889,90.013454
64.848056,89.906992
65.071667,89.829565
65.303889,89.752138
65.656944,89.626319
65.901667,89.55857
66.137778,89.481143
66.363611,89.394038
66.704722,89.268219
66.826944,89.268219
66.930833,89.20047
67.178611,89.123043
67.4225,89.045616
67.771389,88.939154
68.003611,88.861726
68.235833,88.774621
68.472778,88.706872
68.811111,88.706872
68.815278,88.590732
69.052222,88.522983
69.2525,88.464913
69.464722,88.406842
69.802778,88.290702
70.049722,88.213274
70.288056,88.145526
70.493611,88.087455
70.836389,87.980993
71.070833,87.980993
71.074167,87.903566
71.298611,87.835817
71.646944,87.729355
71.937778,87.651928
72.19,87.584179
72.435,87.516431
72.833889,87.409968
73.044167,87.409968
73.048333,87.34222
73.273056,87.264793
73.786667,87.109938
74.083056,87.022833
74.301667,86.964763
74.633889,86.867979
74.885833,86.780873
75.122778,86.780873
75.126111,86.722803
75.347778,86.664733
75.690278,86.567949
75.923333,86.5002
76.145833,86.451808
76.392222,86.393738
76.746944,86.306632
76.993333,86.306632
76.997778,86.219527
77.212222,86.171135
77.428889,86.113064
77.773056,86.035637
77.988056,85.977567
78.240833,85.919497
78.497778,85.84207
78.873611,85.735607
79.125,85.677537
79.286667,85.677537
79.3975,85.60011
79.747778,85.532361
79.993889,85.483969
80.228333,85.425899
80.485556,85.367829
80.849444,85.280723
81.076667,85.212974
81.299722,85.212974
81.306944,85.154904
81.519444,85.106512
81.867778,85.019407
82.104722,84.971015
82.331111,84.912944
82.689722,84.835517
82.916667,84.777447
83.146667,84.729055
83.396389,84.729055
83.399722,84.680663
83.712222,84.603236
83.9625,84.554844
84.205,84.496774
84.440556,84.45806
84.788056,84.380633
85.020833,84.322563
85.279444,84.254814
85.412778,84.254814
85.661944,84.177387
85.908611,84.109638
86.106667,84.061246
86.300556,84.003176
86.634444,83.925749
86.875,83.877357
87.102778,83.828965
87.338611,83.761216
87.685833,83.761216
87.689167,83.674111
87.907222,83.645076
88.123611,83.596684
88.364444,83.538613
88.733611,83.461186
88.961667,83.422473
89.191667,83.383759
89.428889,83.345046
89.703889,83.345046
89.785,83.25794
90.033889,83.209548
90.284444,83.132121
90.515,83.093408
90.861389,83.025659
91.063333,82.977267
91.297778,82.928875
91.653056,82.851448
91.8925,82.851448
91.895833,82.803056
92.113333,82.754664
92.370278,82.696594
92.705278,82.628845
92.935,82.590132
93.156389,82.54174
93.446667,82.493348
93.855,82.493348
93.859167,82.415921
94.093889,82.367529
94.302778,82.309458
94.666389,82.232031
94.910278,82.173961
95.166111,82.125569
95.404167,82.086855
95.725556,82.019107
95.941389,82.019107
95.944444,81.980393
96.187222,81.932001
96.429167,81.893288
96.783611,81.815861
97.036111,81.748112
97.2575,81.719077
97.800833,81.719077
97.8125,81.602936
98.068333,81.554544
98.322222,81.506152
98.653333,81.428725
98.8975,81.390012
99.1175,81.351298
99.355833,81.302906
99.694444,81.225479
99.975,81.225479
99.978333,81.177087
100.201389,81.128695
100.405833,81.089981
100.781111,81.012554
101.029167,80.983519
101.2525,80.935127
101.486111,80.896414
101.820556,80.828665
101.996944,80.828665
102.058889,80.770595
102.2875,80.731881
102.648889,80.644776
102.905278,80.596384
103.1225,80.538313
103.3475,80.470565
103.699722,80.896414
103.731389,80.983519
103.788056,81.09966
103.856389,81.109338
103.8925,81.138373
103.920556,81.138373
103.923889,81.138373
103.944444,81.138373
103.971944,81.128695
103.9925,81.109338
104.025833,81.070625
104.073889,81.012554
104.104722,80.983519
104.118889,80.964162
104.137778,80.944806
104.262778,80.954484
104.386944,80.964162
104.4225,80.983519
104.706389,81.012554
104.724444,81.022233
104.753611,81.022233
104.806111,81.012554
104.847222,81.012554
104.890556,81.012554
104.966944,81.012554
104.985556,81.012554
105.228056,80.993198
105.325833,81.002876
105.494722,80.993198
105.853611,80.973841
106.087222,80.973841
106.087778,80.973841
106.091111,80.964162
106.306667,80.954484
106.638889,80.954484
106.806667,80.935127
106.835278,80.935127
106.886389,80.935127
107.022778,80.925449
107.036944,80.925449
107.131389,80.915771
107.320556,80.915771
107.323889,80.886735
107.368056,80.886735
107.635833,80.838343
107.861389,80.780273
108.084444,80.780273
108.088611,80.74156
108.292222,80.693168
108.411667,80.664132
108.519444,80.625419
108.864444,80.4996
109.075278,80.431851
109.322778,80.335067
109.661944,80.238283
109.902778,80.189891
110.161667,80.122143
110.349444,80.122143
110.385,80.064072
110.697778,79.996324
110.933611,79.928575
111.148889,79.870505
111.396667,79.793078
111.735833,79.676937
111.983056,79.609188
112.222222,79.560796
112.455556,79.493048
112.783056,79.405942
113.035556,79.338193
113.268333,79.270445
113.480278,79.222053
113.829167,79.115591
114.053056,79.05752
114.280833,79.05752
114.285,78.989771
114.662222,78.902666
114.914167,78.834917
115.173333,78.747812
115.4025,78.689741
115.719167,78.612314
115.951111,78.554244
116.241667,78.467139
116.486111,78.467139
116.489444,78.418747
116.820278,78.34132
117.045556,78.292928
117.260278,78.234857
117.483611,78.196144
117.835,78.109038
118.075833,78.060646
118.300556,78.002576
118.637222,77.925149
118.862778,77.867079
119.0775,77.828365
119.326389,77.770295
119.650556,77.702546
119.890278,77.663832
120.129722,77.596084
120.312222,77.596084
120.316389,77.567049
120.653056,77.4993
120.875556,77.450908
121.095556,77.402516
121.336944,77.344446
121.808056,77.25734
122.143333,77.189591
122.41,77.150878
122.458611,77.150878
122.760556,77.092808
122.988889,77.054094
123.224444,77.01538
123.460833,76.976667
123.816389,76.918597
124.075833,76.870205
124.313611,76.821813
124.658056,76.754064
124.901111,76.705672
125.123333,76.666959
125.346944,76.628245
125.714722,76.579853
125.966111,76.560496
126.2,76.521783
126.428333,76.521783
126.432778,76.483069
126.776667,76.434677
126.806667,76.434677
126.973056,76.395964
126.993611,76.395964
127.044444,76.395964
127.125833,76.386285
127.254722,76.366929
127.368611,76.337893
127.425556,76.328215
127.655,76.289501
127.749722,76.270145
127.773333,76.270145
127.819167,76.260466
128.043889,76.221753
128.069444,76.221753
128.293889,76.192718
128.656667,76.144326
128.853889,76.105612
129.063889,76.066899
129.295833,76.037863
129.658056,75.970115
129.887778,75.94108
130.107222,75.912044
130.335,75.873331
130.6825,75.824939
130.947778,75.795904
131.194167,75.747512
131.41,75.728155
131.811111,75.679763
132.054167,75.64105
132.288333,75.602336
132.6375,75.553944
132.906944,75.505552
133.130556,75.476517
133.353611,75.437803
133.693611,75.39909
133.912778,75.360376
134.143333,75.331341
134.369167,75.302306
134.7,75.244236
134.942778,75.2152
135.191111,75.176487
135.392222,75.15713
135.735556,75.09906
135.945,75.079703
136.181667,75.050668
136.431111,75.021633
136.783333,74.973241
137.008889,74.944206
137.236389,74.91517
137.458056,74.886135
137.808056,74.837743
138.060556,74.79903
138.285833,74.760316
138.512222,74.721603
138.858611,74.673211
139.091944,74.653854
139.3975,74.61514
139.724167,74.566749
139.9675,74.528035
140.246389,74.508678
140.483056,74.489321
140.853056,74.440929
141.089722,74.421573
141.291667,74.402216
141.645833,74.373181
141.883889,74.344146
142.103889,74.31511
142.331667,74.286075
142.69,74.247362
142.973333,74.19897
143.2025,74.179613
143.439722,74.150578
143.791389,74.111864
144.042222,74.082829
144.269722,74.063472
144.491944,74.044116
144.851944,74.01508
145.083611,73.986045
145.315833,73.966689
145.793611,73.918297
146.143611,73.869905
146.429167,73.840869
146.780278,73.811834
147.050556,73.792478
147.2875,73.763442
147.514167,73.724729
147.8925,73.695694
148.107778,73.676337
148.316111,73.65698
148.676111,73.618267
148.968889,73.589231
149.196944,73.569875
149.425,73.560196
149.8025,73.531161
150.043056,73.502126
150.268889,73.482769
150.463611,73.473091
150.781389,73.434377
151.021111,73.41502
151.241667,73.395664
151.508611,73.376307
151.863889,73.327915
152.105556,73.308558
152.339722,73.289201
152.688889,73.231131
152.933889,73.202096
153.150833,73.182739
153.370278,73.163382
153.719167,73.134347
153.955833,73.105312
154.185,73.095634
154.427222,73.066599
154.764722,73.037563
154.970833,73.027885
155.188333,73.008528
155.442778,72.99885
155.804444,72.969815
156.043333,72.940779
156.274444,72.921423
156.492222,72.902066
156.811111,72.873031
157.041389,72.853674
157.259444,72.843996
157.500278,72.81496
157.879167,72.795604
158.126389,72.766569
158.3375,72.747212
158.668333,72.727855
158.901944,72.727855
159.150833,72.69882
159.403056,72.689141
159.775556,72.660106
160.011389,72.650428
160.25,72.640749
160.492778,72.611714
160.831667,72.592358
161.065278,72.582679
161.3025,72.582679
161.305833,72.582679
161.642778,72.553644
161.897778,72.543966
162.140833,72.543966
162.361389,72.534287
162.678333,72.51493
162.918333,72.51493
163.152778,72.495574
163.391667,72.476217
163.750833,72.45686
163.979167,72.447182
164.195833,72.437503
164.441389,72.427825
164.794444,72.427825
165.022778,72.408468
165.266111,72.408468
165.270556,72.389111
165.520556,72.379433
165.862778,72.360076
166.070556,72.350398
166.319167,72.331041
166.631389,72.321363
166.859444,72.311684
167.088611,72.311684
167.324167,72.292328
167.666944,72.263292
167.930833,72.263292
168.168333,72.243936
168.390278,72.234257
168.734167,72.205222
168.966111,72.205222
169.201944,72.205222
169.377222,72.185865
169.816111,72.166509
170.222222,72.166509
170.463611,72.15683
170.807778,72.137473
171.064444,72.127795
171.2925,72.108438
171.664167,72.089081
171.921667,72.079403
172.128889,72.069725
172.342222,72.060046
172.688056,72.060046
172.916667,72.050368
173.155,72.040689
173.381944,72.050368
173.720833,72.050368
173.969722,72.050368
174.201667,72.050368
174.418889,72.050368
174.825556,72.050368
175.059444,72.040689
175.295278,72.040689
175.636111,72.031011
175.901944,72.031011
176.129444,72.011654
176.36,72.021333
176.711111,72.011654
176.938056,72.011654
177.179722,72.011654
177.418333,72.001976
177.774167,72.001976
178.027222,72.001976
178.253889,72.001976
178.49,72.011654
178.849167,72.001976
179.06,72.001976
179.310556,72.001976
179.645556,71.992298
179.9,72.001976
180.151389,71.992298
180.383889,71.992298
180.715,71.992298
180.9375,71.992298
181.160833,71.992298
181.395556,71.982619
181.728889,71.982619
181.94,71.972941
182.193056,71.972941
182.411389,71.963262
182.749722,71.963262
183.001667,71.953584
183.231944,71.953584
183.463056,71.943906
183.791111,71.91487
184.02,71.895514
184.276389,71.876157
184.503056,71.8568
184.864444,71.818087
185.085833,71.808408
185.333056,71.760016
185.672222,71.740659
185.914167,71.721303
186.140278,71.701946
186.384167,71.682589
186.735833,71.643876
186.967778,71.61484
187.217778,71.585805
187.430278,71.55677
187.77,71.537413
188.001667,71.508378
188.228889,71.489021
188.470556,71.459986
188.844167,71.421273
189.047222,71.392238
189.289444,71.372881
189.6425,71.334167
189.881111,71.31481
190.134722,71.285775
190.363056,71.285775
190.366389,71.247062
190.430278,71.247062
190.725,71.208348
190.925278,71.188991
191.172778,71.179313
191.408611,71.150278
191.750278,71.130921
191.996667,71.111564
192.216389,71.101886
192.4475,71.082529
192.781389,71.063172
193.001944,71.043816
193.231389,71.01478
193.794444,70.966388
194.0425,70.947032
194.298333,70.927675
194.633611,70.888961
194.887222,70.869605
195.101944,70.850248
195.313056,70.830891
195.643889,70.801856
195.881389,70.792178
196.130833,70.753464
196.356389,70.734107
196.717778,70.71475
196.934722,70.71475
196.938056,70.705072
197.196389,70.685715
197.394167,70.685715
197.748611,70.666358
197.978056,70.647002
198.218611,70.627645
198.448889,70.617967
198.801389,70.608288
199.003056,70.588931
199.216111,70.579253
199.461667,70.569575
199.806389,70.559896
200.046389,70.540539
200.269167,70.530861
200.504722,70.521183
200.861667,70.521183
200.865833,70.501826
201.096944,70.482469
201.348611,70.472791
201.6975,70.453434
201.933056,70.434077
202.172222,70.424399
202.415556,70.424399
202.781111,70.395364
203.029444,70.385685
203.258333,70.366328
203.501944,70.346972
203.855833,70.327615
204.084167,70.317937
204.314167,70.29858
204.656389,70.279223
204.878889,70.250188
205.114722,70.240509
205.3275,70.221153
205.645833,70.221153
205.884722,70.211474
206.120833,70.201796
206.362778,70.192118
206.714444,70.172761
206.933889,70.163082
207.157222,70.153404
207.383611,70.143726
207.741389,70.124369
207.957778,70.11469
208.216389,70.095334
208.452778,70.085655
208.791667,70.075977
209.011667,70.066298
209.249167,70.05662
209.481111,70.046942
209.848333,70.017907
210.086111,70.017907
210.308611,69.99855
210.653611,69.988871
210.893056,69.988871
211.130278,69.979193
211.355556,69.969515
211.692778,69.959836
211.909167,69.950158
212.1325,69.940479
212.375556,69.921123
212.718889,69.911444
212.948333,69.901766
213.1825,69.892088
213.423056,69.882409
213.747778,69.863052
213.984444,69.853374
214.220278,69.853374
214.454722,69.843696
214.815556,69.834017
215.052778,69.834017
215.285833,69.824339
215.52,69.804982
215.883889,69.795304
216.1075,69.785625
216.326667,69.785625
216.639444,69.75659
216.870278,69.746912
217.103611,69.737233
217.328611,69.727555
217.823611,69.727555
218.126667,69.708198
218.347222,69.69852
218.674167,69.688841
218.911389,69.679163
219.143611,69.669485
219.385556,69.650128
219.731111,69.650128
219.9775,69.640449
220.199722,69.640449
220.399167,69.650128
220.755,69.640449
220.993889,69.640449
221.221667,69.630771
221.449167,69.630771
221.802222,69.601736
222.028333,69.601736
222.271667,69.592058
222.500556,69.582379
222.836389,69.582379
223.063889,69.582379
223.310833,69.592058
223.698889,69.572701
223.942222,69.563022
224.206111,69.563022
224.4525,69.553344
224.7875,69.543666
225.016667,69.543666
225.254167,69.553344
225.473333,69.553344
225.673611,69.553344
225.815833,69.553344
226.039722,69.543666
226.246111,69.543666
226.476389,69.543666
226.811667,69.533987
227.043333,69.524309
227.278333,69.533987
227.521667,69.524309
227.883611,69.524309
228.116944,69.524309
228.322778,69.524309
228.650556,69.524309
228.906111,69.524309
229.136667,69.51463
229.366667,69.51463
229.6875,69.51463
229.724167,69.51463
229.957778,69.524309
230.220556,69.51463
230.446389,69.51463
230.784167,69.504952
230.994444,69.504952
231.225278,69.495274
231.505833,69.485595
231.845,69.475917
232.080278,69.475917
232.321944,69.466238
232.663056,69.466238
232.888889,69.45656
233.107222,69.446882
233.324444,69.437203
233.643333,69.437203
233.888889,69.437203
234.115556,69.437203
234.359722,69.427525
234.693056,69.408168
234.919444,69.408168
235.162778,69.408168
235.418333,69.408168
235.767222,69.388811
235.99,69.388811
235.997778,69.388811
236.2075,69.39849
236.4475,69.388811
