time,pressure
0.0,35.48261
2.066667,71.615901
2.7,104.917296
4.05,137.079544
7.816667,172.244996
9.666667,203.903001
11.283333,220.059132
13.116667,239.620121
14.133333,217.4179
17.166667,179.447652
20.033333,149.661447
21.733333,126.967565
23.783333,108.678317
25.1,92.404109
27.883333,80.004159
29.166667,68.120067
31.916667,60.174112
32.6,55.010692
34.666667,52.981134
37.083333,50.047615
39.133333,48.680059
41.65,47.525427
43.2,46.800516
45.6,46.385313
47.016667,45.952689
50.116667,45.624592
52.483333,45.340048
54.183333,45.113573
55.933333,44.875485
57.633333,44.637397
59.1,44.393501
61.5,44.149606
62.85,43.888289
66.066667,43.602777
67.133333,43.294036
69.533333,42.977553
72.316667,42.633003
74.0,42.317487
76.133333,42.009715
78.216667,41.718395
81.333333,41.476435
83.916667,41.328356
85.666667,41.237379
88.283333,41.214151
90.366667,41.213183
91.866667,41.214151
92.9,41.170598
96.35,41.038004
100.033333,40.872504
100.75,40.68184
104.55,40.568603
104.883333,40.414716
108.833333,40.305351
109.983333,40.232763
114.816667,40.231795
115.116667,40.226956
131.533333,40.225988
135.083333,40.248248
135.533333,40.308254
139.016667,40.42633
140.983333,40.595702
143.016667,40.901539
145.033333,41.271254
146.45,41.663228
149.016667,42.021329
150.733333,42.438467
152.766667,42.814956
154.516667,43.180799
155.866667,43.617295
161.0,44.014108
162.75,44.261875
164.766667,44.333495
165.816667,44.360595
170.85,44.341238
171.85,44.289943
174.8,44.238647
176.85,44.221226
178.533333,44.239615
179.9,44.263811
181.9,44.324785
185.35,44.421569
187.716667,44.529967
190.9,44.621911
192.916667,44.699338
195.55,44.754505
197.033333,44.818382
199.133333,44.88226
200.783333,45.030339
203.2,45.273267
209.35,45.509419
211.483333,45.64782
212.266667,45.772671
217.4,45.908169
218.8,46.011728
221.166667,46.06883
222.55,46.158839
225.0,46.259494
228.9,46.378538
231.833333,46.465644
232.216667,46.556621
235.083333,46.641791
236.866667,46.741478
239.35,46.844069
240.75,46.867297
242.433333,47.135388
245.183333,50.199566
248.983333,58.14165
251.05,68.222658
253.483333,76.408638
254.566667,84.040047
257.0,89.827722
258.416667,97.475584
261.683333,101.419526
263.783333,98.403741
264.833333,91.14979
266.9,86.279625
269.283333,79.303444
272.0,73.536093
272.983333,66.013083
275.083333,61.425527
277.116667,55.518807
279.233333,49.760167
281.7,45.111638
285.8,42.565254
287.866667,41.878088
289.283333,41.815179
291.533333,41.848085
293.4,41.899381
294.416667,41.971969
297.2,42.073592
298.6,42.213928
300.75,42.415239
303.533333,42.673652
304.2,43.084983
308.183333,43.362753
322.35,42.930129
327.266667,42.511055
330.05,42.740433
331.85,43.391788
333.966667,43.855383
335.683333,44.33156
337.383333,44.879356
340.466667,45.375858
341.516667,45.82687
343.266667,46.451126
345.683333,47.240883
348.15,48.103227
351.533333,48.810717
353.05,49.523046
353.85,50.451204
360.166667,51.450013
362.216667,52.197185
364.266667,52.614323
365.983333,53.082757
367.7,53.570548
369.416667,54.096084
371.833333,54.573229
373.65,55.224584
378.6,55.927235
380.316667,56.599883
382.383333,57.101224
384.4,57.654827
386.116667,58.154232
386.8,58.689447
389.15,59.306928
391.2,60.12572
394.583333,60.952254
396.333333,61.571671
397.35,61.87654
398.766667,62.253029
402.616667,62.712753
403.333333,63.203447
406.233333,63.580904
407.65,63.977718
409.333333,64.390017
412.033333,64.946524
414.133333,65.558198
415.816667,66.285045
418.566667,66.916076
419.183333,67.534525
422.983333,67.919725
423.316667,68.309764
425.416667,68.693028
428.583333,69.147912
429.283333,69.517627
431.95,69.976382
434.5,70.741943
438.933333,71.695264
439.966667,72.636971
444.066667,73.395756
446.833333,73.970653
448.883333,74.322946
450.25,74.684918
452.666667,75.095281
454.716667,75.450478
456.45,75.631464
458.833333,75.811482
460.5,76.234427
464.0,76.309919
466.35,75.859874
470.816667,74.241647
473.216667,73.231224
475.6,71.929481
479.0,70.744846
480.733333,70.186403
482.85,70.475787
483.55,71.120368
485.266667,71.652679
487.533333,72.491795
491.25,73.203156
491.6,73.798377
494.666667,74.108086
495.35,74.273586
499.133333,75.780511
513.6,77.988151
515.7,79.744778
519.116667,80.146431
520.8,80.662289
523.916667,81.194601
527.266667,81.671745
529.95,82.07727
531.0,82.543768
533.65,83.098339
534.85,83.740017
537.516667,84.431053
539.616667,85.226617
543.666667,85.778285
544.716667,86.244783
547.483333,86.753866
551.6,87.32102
553.983333,87.635567
554.25,87.841717
556.783333,88.508558
558.8,89.246051
564.983333,90.104524
566.6,90.809111
571.733333,92.468954
575.166667,93.162894
578.916667,93.719402
581.583333,94.109441
583.333333,94.425924
585.35,94.753053
587.716667,95.056955
589.85,95.49345
590.2,96.40709
596.7,97.613017
602.2,98.474393
603.533333,98.861529
605.666667,99.069614
606.433333,99.376419
607.566667,99.855499
614.2,100.502983
616.266667,101.044973
617.983333,102.542219
635.033333,104.200127
635.7,105.299592
639.216667,105.819321
640.3,106.106769
642.4,106.471645
645.2,106.866523
647.633333,107.465615
651.533333,108.091807
655.083333,108.9948
655.716667,109.413874
658.75,109.948121
660.45,110.65174
662.883333,110.628512
665.033333,109.597764
666.516667,107.92437
668.266667,106.1871
670.766667,103.627167
676.05,100.520404
677.466667,99.039611
679.266667,98.712482
681.35,98.753131
683.116667,98.637958
686.05,98.645701
686.416667,98.447294
689.266667,97.990474
692.066667,97.507522
695.216667,97.3517
697.616667,97.34299
698.316667,97.120387
701.383333,96.669374
704.133333,96.161259
705.866667,95.893167
706.95,95.651208
710.15,95.451833
711.233333,95.132446
715.666667,94.756925
720.1,94.675626
720.816667,94.619492
723.583333,94.611749
724.65,94.431731
726.816667,94.155897
731.066667,93.860706
732.5,93.785215
735.333333,93.697141
737.083333,93.58584
738.916667,93.565515
739.966667,93.860706
745.05,94.327204
745.75,94.89339
749.083333,95.43538
750.45,95.858325
753.766667,95.938656
756.266667,95.939624
759.25,95.857357
762.7,95.395698
766.183333,94.694015
768.966667,94.545936
770.0,94.517869
773.533333,94.419149
775.266667,94.368821
775.983333,94.397857
779.116667,94.624331
783.283333,94.829513
784.733333,94.856612
787.333333,94.638848
803.033333,94.397857
803.733333,94.111376
807.35,93.868449
808.45,93.581001
811.3,93.586808
812.683333,93.694238
817.316667,93.712627
817.666667,93.525834
819.916667,93.254839
822.516667,93.135795
822.883333,93.160959
826.033333,93.244193
828.416667,93.097081
832.616667,92.808665
834.4,92.671232
835.516667,92.701235
838.266667,92.741884
841.4,92.736077
841.766667,92.530896
844.483333,92.27829
846.65,92.146664
848.016667,92.237641
849.433333,92.283129
852.533333,92.224091
855.333333,91.905672
856.783333,91.610481
859.05,91.545636
861.183333,91.596931
863.3,91.597899
865.4,91.550475
866.816667,91.318194
869.133333,91.087848
871.183333,91.041392
872.183333,91.053974
874.883333,91.072363
877.683333,90.958158
879.4,90.651353
879.766667,90.353259
882.2,90.25841
885.383333,90.283574
886.466667,90.301963
889.466667,90.168401
891.5,89.855789
893.2,89.614798
895.583333,89.602216
896.233333,89.654479
901.45,89.42123
903.516667,89.041837
907.383333,88.84343
909.116667,88.853109
911.666667,88.918922
913.066667,88.837623
915.616667,88.567596
916.8,88.302408
918.583333,88.294666
921.6,88.373061
923.0,88.417581
924.016667,88.33725
927.466667,87.978182
929.183333,87.648149
931.216667,87.612339
933.316667,87.619114
935.75,87.668474
937.016667,87.556205
939.05,87.229075
940.416667,86.925174
943.483333,86.92227
944.133333,87.000665
949.983333,86.8642
951.35,86.600948
953.416667,86.307693
970.933333,85.9012
972.633333,85.412442
976.683333,85.199517
979.2,85.634077
985.4,86.504164
986.8,87.003569
989.033333,87.061639
989.716667,87.492327
993.0,88.015928
993.7,88.562757
997.166667,88.462102
999.55,88.30628
1002.65,88.27918
1004.016667,88.759228
1007.566667,89.248955
1008.616667,89.576084
1011.55,89.621572
1013.416667,89.584795
1013.766667,89.589634
1017.55,89.637058
1017.9,89.756102
1019.6,89.789976
1022.016667,89.495753
1023.85,88.991509
1027.316667,89.042805
1027.683333,89.162817
1031.266667,89.189916
1033.016667,89.126039
1035.116667,88.831816
1036.5,88.493073
1036.85,88.396289
1040.0,88.436938
1042.5,88.495008
1043.916667,88.46307
1046.35,88.099162
1048.5,87.707187
1051.083333,87.554269
1053.183333,87.575561
1055.25,87.583304
1057.733333,87.291985
1058.083333,87.07906
1058.75,86.903881
1061.516667,86.779998
1064.283333,86.136385
1066.333333,85.551811
1067.0,84.983689
1070.15,84.260714
1073.05,83.723563
1074.666667,83.305457
1076.616667,82.812827
1077.433333,82.61442
1080.4,82.57861
1082.183333,82.608613
1084.633333,82.255352
1088.333333,81.552701
1090.783333,81.370747
1091.133333,81.34268
1094.966667,81.325259
1096.816667,81.079428
1099.583333,80.728102
1103.05,80.498725
1104.766667,80.494853
1106.15,80.547117
1107.5,80.533567
1111.0,80.287736
1112.716667,80.03513
1114.85,80.004159
1116.633333,80.140624
1117.666667,80.265476
1120.216667,80.320642
1122.4,80.261604
1139.316667,80.14256
1139.666667,80.136753
1142.916667,80.298382
1143.633333,80.34387
1146.916667,80.199663
1149.033333,80.023516
1150.466667,80.051583
1153.283333,80.163852
1155.016667,80.297414
1156.066667,80.358388
1158.533333,80.226762
1160.3,80.01287
1161.366667,79.96351
1163.8,80.177402
1166.85,80.344838
1169.383333,80.230633
1172.266667,79.996416
1173.633333,79.97222
1175.366667,80.201598
1180.283333,80.310964
1182.05,80.192888
1184.75,80.029323
1186.083333,80.020612
1188.2,80.224826
1190.85,80.300318
1194.8,80.166756
1196.2,79.995449
1198.333333,80.051583
1200.816667,80.198695
1202.9,80.354517
1203.516667,80.372906
1206.383333,80.198695
1207.1,80.020612
1210.266667,80.060294
1212.75,80.208373
1214.516667,80.295479
1216.716667,80.196759
1220.616667,80.062229
1222.066667,80.090297
1227.583333,80.311932
1229.433333,80.375809
1229.8,80.239344
1233.033333,80.104814
1234.766667,80.128042
1237.233333,80.238376
1238.316667,80.389359
1240.166667,80.302253
1243.216667,79.973188
1245.0,79.996416
1247.15,80.100943
1249.183333,80.209341
1251.133333,80.338063
1252.916667,80.288704
1254.75,80.283864
1259.35,80.376777
1260.8,80.644868
1262.9,80.860696
1265.2,80.943931
1265.95,80.837468
1268.133333,80.763913
1271.3,80.891667
1273.033333,81.068782
1275.533333,81.209118
1277.35,81.180083
1278.466667,81.077492
1281.4,81.028132
1282.5,81.201376
1285.166667,81.387201
1286.35,81.543023
1289.2,81.541087
1291.3,81.701748
1292.65,82.822505
1299.116667,83.848415
1299.566667,84.262649
1303.016667,84.212322
1305.366667,84.263617
1306.783333,84.319752
1309.316667,84.37879
1311.533333,84.400083
1313.283333,84.201676
1314.733333,83.804862
1332.7,83.605487
1335.666667,83.585162
1337.366667,83.389659
1339.216667,83.185445
1341.683333,83.167056
1344.05,83.361592
1347.516667,83.450633
1348.583333,83.253194
1350.966667,82.916386
1353.716667,83.07124
1356.85,83.309328
1359.266667,83.401273
1360.683333,83.260936
1363.333333,83.0935
1365.55,83.058658
1367.833333,83.182541
1369.666667,83.29965
1371.983333,83.326749
1373.716667,83.194156
1374.4,83.022848
1377.216667,83.037366
1379.9,83.187381
1383.583333,83.27255
1384.25,83.112857
1388.05,82.891222
1388.833333,82.82928
1391.25,82.970585
1392.966667,83.128342
1395.516667,83.195123
1397.75,83.091565
1399.083333,83.045108
1401.5,83.670332
1408.333333,84.157155
1409.45,84.208451
1411.65,84.094246
1413.966667,84.133927
1415.416667,84.2491
1417.083333,84.396211
1420.116667,84.308138
1422.166667,84.156187
1426.233333,84.083599
1427.95,84.231679
1429.0,84.321688
1432.066667,84.331366
1433.766667,84.274264
1435.516667,84.347819
1437.85,84.622685
1439.2,84.967236
1442.216667,85.153061
1443.05,85.215003
1445.8,85.196614
1446.466667,85.31469
1449.066667,85.985402
1454.133333,86.089929
1454.85,86.084122
1457.933333,86.295111
1460.35,86.418026
1460.716667,86.575784
1463.45,86.689989
1478.983333,86.288336
1480.65,86.306725
1482.016667,86.353181
1484.416667,86.449965
1485.116667,86.534167
1488.783333,86.396734
1490.133333,86.158646
1493.116667,86.038634
1494.833333,86.092832
1495.166667,86.200263
1498.216667,86.327049
1500.6,86.268011
1502.25,86.042505
1504.283333,85.89249
1507.333333,85.938946
1509.366667,86.000888
1511.383333,86.015405
1513.066667,85.886683
1515.083333,85.502451
1515.533333,85.420185
1519.066667,85.509226
1519.75,85.634077
1522.083333,85.685372
1525.116667,85.504387
1526.816667,85.141447
1529.166667,85.146286
1531.183333,85.238231
1533.2,85.307915
1535.2,85.353404
1536.9,85.287591
1539.466667,84.831739
1541.283333,84.844321
1543.016667,84.885938
1545.05,84.985625
1545.733333,85.049502
1549.1,84.867549
1550.816667,84.614943
1553.25,84.591715
1554.916667,84.64301
1556.3,84.719469
1559.333333,84.7727
1561.416667,84.626557
1563.6,84.396211
1565.1,84.212322
1566.116667,84.161994
1569.133333,84.23555
1569.75,84.10586
1575.783333,83.647104
1577.133333,83.464183
1579.35,83.483539
1580.016667,83.466118
1582.766667,83.548384
1583.8,83.436115
1587.5,83.131246
1589.35,82.827345
1591.05,82.812827
1593.183333,82.837023
1595.233333,82.749918
1596.666667,82.486665
1604.366667,82.27858
1607.433333,82.352136
1608.916667,82.317294
1611.483333,82.060816
1613.5,81.84886
1616.466667,81.885638
1619.1,81.980486
1621.283333,81.910801
1623.35,81.628192
1625.083333,81.48592
1641.85,81.634967
1645.25,81.602061
1647.65,81.328162
1648.366667,81.072653
1650.75,81.140402
1653.266667,81.254607
1655.733333,81.421075
1656.383333,81.283642
1659.483333,81.175244
1660.016667,81.675617
1663.433333,83.16996
1665.083333,84.773668
1665.75,86.489646
1668.816667,88.066256
1670.916667,89.360256
1672.983333,90.233247
1675.066667,90.639739
1676.366667,90.396811
1678.483333,89.905149
1679.883333,88.908275
1683.533333,87.787518
1687.083333,86.980341
1688.45,86.944531
1691.183333,86.799355
1693.25,86.543845
1693.566667,86.127675
1698.416667,85.809256
1700.5,85.775381
1703.566667,85.85668
1705.466667,85.515033
1707.466667,85.042727
1711.35,84.763022
1712.283333,84.790122
1715.183333,84.65656
1717.25,84.328463
1717.933333,83.944231
1720.066667,83.735177
1722.783333,83.663557
1724.716667,83.634522
1727.1,83.422565
1729.416667,82.965746
1731.133333,82.497312
1732.133333,82.140179
1735.283333,81.688198
1737.433333,81.146209
1739.3,80.602283
1741.916667,80.318707
1745.3,80.094168
1745.983333,80.078683
1751.033333,80.077715
1752.416667,80.221923
1755.133333,80.374841
1756.116667,80.290639
1759.333333,80.098039
1761.083333,79.964478
1762.516667,80.099975
1765.05,80.230633
1766.133333,80.34387
1769.45,80.286768
1769.816667,80.135785
1773.416667,80.056422
1775.2,80.134817
1777.3,80.266443
1779.066667,80.313867
1780.066667,80.219019
1785.316667,80.117396
1787.183333,80.14256
1789.3,80.284832
1789.666667,80.333224
1793.216667,80.208373
1794.333333,79.986738
1810.45,79.888018
1811.15,79.835755
1814.3,79.531854
1818.483333,79.122458
1820.266667,79.331511
1821.716667,79.749618
1823.816667,80.039001
1826.583333,80.130946
1828.2,80.04868
1828.533333,80.140624
1834.1,80.372906
1837.266667,80.373873
1839.35,80.136753
1840.4,80.01287
1842.883333,80.141592
1845.283333,80.293543
1847.316667,80.432912
1848.366667,80.45614
1851.583333,80.051583
1852.45,80.046744
1854.2,80.121268
1856.65,80.175467
1859.05,80.452268
1864.683333,81.198472
1867.316667,81.321388
1868.366667,81.484952
1871.166667,81.754012
1872.55,82.219542
1875.45,82.695719
1876.7,83.027687
1878.433333,82.958003
1879.466667,83.016073
1883.233333,83.435147
1885.316667,84.040047
1887.1,84.506545
1888.516667,84.697209
1889.583333,84.62075
1890.95,84.522998
1895.1,84.694306
1897.133333,84.954654
1898.166667,85.281784
1900.9,85.464705
1902.6,85.385342
1904.65,85.24307
1905.7,85.315658
1907.1,85.638916
1910.866667,86.048312
1911.566667,86.193488
1914.916667,85.863455
1915.966667,85.401796
1918.383333,85.50729
1920.15,85.884747
1923.483333,85.883779
1927.283333,85.748282
1930.716667,85.55665
1931.75,85.676662
1934.566667,85.67763
1936.35,85.501483
1938.6,84.76399
1940.783333,84.117474
1947.1,83.803894
1948.066667,83.579355
1949.733333,82.976392
1952.016667,82.551511
1954.966667,82.909611
1956.666667,83.252226
1959.35,83.034462
1961.033333,82.37246
1962.383333,82.061784
1964.416667,81.955322
1981.5,72.996039
1983.55,71.582027
1983.9,69.466331
1986.233333,67.629373
1987.966667,65.918234
1991.916667,64.504222
1993.433333,64.48293
1995.083333,64.604877
1997.35,64.444216
1998.0,64.289362
2000.233333,64.119022
2002.2,64.085148
2004.1,64.163543
2008.483333,64.503254
2010.066667,65.024919
2012.016667,65.709181
2016.466667,66.882202
2018.316667,67.266434
2020.416667,67.779388
2022.766667,68.245887
2023.25,68.886596
2026.283333,69.674416
2030.783333,70.604509
2032.716667,71.272318
2034.366667,71.828825
2037.033333,72.415336
2039.033333,73.022171
2041.0,73.546739
2042.95,74.005495
2044.566667,74.471993
2046.533333,74.954945
2047.533333,75.518227
2050.383333,76.120222
2052.666667,76.841262
2055.166667,77.375509
2055.516667,77.770387
2058.866667,78.087838
2061.1,78.471103
2062.933333,78.74113
2064.55,78.924051
2067.083333,79.086648
2069.0,79.27828
2070.916667,79.530886
2072.783333,79.810591
2074.416667,79.930603
2075.066667,79.908343
2078.733333,79.971253
2079.733333,80.037066
2082.033333,80.134817
2084.933333,80.189984
2085.916667,80.040937
2089.133333,79.884147
2091.533333,79.851241
2093.0,79.964478
2095.183333,80.078683
2097.066667,80.056422
2098.35,79.948992
2103.216667,79.897697
2105.466667,80.049648
2106.783333,80.076747
2110.966667,79.945121
2112.916667,79.809624
2115.433333,79.889954
2117.066667,80.017709
2118.616667,80.152238
2120.616667,80.094168
2123.2,79.948992
2125.5,79.871565
2127.516667,79.987706
2129.533333,80.0932
2131.216667,80.174499
2133.516667,80.074811
2135.566667,79.819302
2135.933333,79.78446
