time,pressure
0.0,19.759025
1.416667,34.315319
3.683333,61.077028
5.616667,90.455772
6.85,119.187032
9.683333,146.437499
11.7,165.975259
13.833333,168.831351
15.316667,164.611575
17.866667,157.865739
18.85,147.613423
21.866667,136.906223
23.916667,128.576036
25.6,118.065307
27.85,113.000607
30.3,108.857289
31.45,105.796983
33.783333,102.85185
35.833333,99.847679
37.633333,97.812314
39.733333,95.876637
41.7,93.461879
43.7,90.627079
45.8,87.880353
47.8,85.258478
49.75,82.804039
52.0,80.348632
54.033333,77.705465
55.85,75.710749
57.983333,74.232859
59.866667,72.805297
61.5,71.29063
64.05,69.934688
65.75,68.717146
67.85,67.763825
69.916667,66.719527
71.983333,65.63458
73.883333,64.292188
76.116667,62.984638
77.733333,61.553204
80.083333,60.023051
82.166667,58.565486
84.0,57.340202
86.133333,56.253319
88.416667,55.299998
90.05,54.681549
91.933333,54.187952
94.25,53.833723
96.433333,53.578213
97.766667,53.468847
100.15,53.375935
102.466667,53.260762
104.033333,53.022674
106.65,52.718772
108.166667,52.378093
110.05,51.995797
112.4,51.513813
114.533333,50.918592
116.466667,50.148193
118.416667,49.351661
120.633333,48.51061
122.4,47.688915
124.866667,46.864316
126.45,46.249738
128.483333,45.771626
130.4,45.379651
132.816667,45.064136
134.483333,44.818305
136.683333,44.595702
138.5,44.36826
140.0,44.173724
142.483333,43.94725
144.516667,43.704323
146.716667,43.472041
149.033333,43.279441
150.483333,43.173947
152.683333,42.740355
166.65,42.181912
168.65,41.743481
171.8,41.6767
173.15,41.556688
175.116667,41.456033
176.816667,41.365056
179.166667,41.292468
181.166667,42.943601
183.6,49.345854
184.766667,56.82628
186.833333,61.766129
189.116667,62.793973
196.05,59.81303
196.966667,53.825012
198.633333,48.554162
201.466667,44.827015
203.616667,42.976508
205.45,42.082225
207.666667,41.307954
209.7,40.686601
210.85,40.234621
213.15,39.673274
215.7,39.207744
217.066667,38.889325
218.8,38.665754
220.633333,38.378306
223.6,38.1528
225.483333,37.957296
227.45,37.761793
229.45,37.535319
231.416667,37.329169
235.933333,37.195607
237.816667,37.108502
239.833333,37.06011
241.8,37.021396
243.816667,36.984618
245.85,36.912998
247.416667,36.813311
250.1,36.730077
251.866667,37.348526
253.916667,39.568748
257.9,42.152877
259.566667,43.413971
267.066667,43.506883
267.95,41.97673
270.916667,39.88136
272.15,38.401534
273.933333,37.80341
276.066667,37.328201
277.716667,36.882027
280.066667,36.551994
281.716667,36.248093
284.033333,35.962581
286.2,35.606416
287.95,35.30929
290.533333,35.063458
292.916667,34.846663
294.05,34.652127
296.65,34.48953
298.1,34.33274
300.416667,34.183693
301.716667,34.015289
304.6,33.874953
306.033333,33.734616
308.5,33.634929
309.95,33.498463
312.5,33.345545
314.083333,33.188755
316.133333,33.102617
318.616667,32.740646
332.416667,32.297375
333.983333,31.977021
336.883333,31.9596
338.6,31.916047
342.05,31.891851
342.6,31.869591
344.6,31.851202
346.183333,31.831845
348.75,31.808617
350.7,31.763128
352.5,31.709897
354.55,31.636342
356.533333,31.555043
359.0,31.465034
360.4,31.403092
362.7,31.324697
364.433333,31.229849
367.633333,31.136937
368.783333,31.100159
370.733333,31.076931
373.0,31.098223
373.783333,31.149519
376.083333,31.241463
377.65,31.326633
379.716667,31.392446
380.583333,31.472777
383.45,31.551172
385.466667,31.613113
387.483333,31.625695
389.85,31.645052
392.433333,31.661505
394.416667,31.671184
396.016667,31.664409
397.8,31.64602
399.4,31.602467
401.683333,31.550204
403.6,31.473745
405.666667,31.385671
407.966667,31.291791
409.65,31.198878
411.65,31.104998
413.766667,31.016925
415.766667,30.94724
418.066667,30.872717
419.7,30.804
421.816667,30.738187
423.75,30.676246
425.783333,30.6114
427.5,30.561073
429.65,30.524295
431.716667,30.494292
433.766667,30.458482
435.083333,30.4188
438.15,30.382023
439.733333,30.328791
441.6,30.262978
444.15,30.205876
445.85,30.15942
447.75,30.108124
449.783333,30.053925
451.75,30.014244
453.8,29.98037
456.016667,29.947463
457.716667,29.907782
460.033333,29.863261
462.066667,29.812933
463.866667,29.762606
465.8,29.715182
468.7,29.681307
470.35,29.657111
471.916667,29.628076
473.8,29.58162
476.1,29.531292
478.183333,29.491611
480.083333,29.456769
481.75,29.420959
484.366667,29.385149
486.1,29.354178
488.05,29.323207
489.566667,29.310625
491.916667,29.3174
493.833333,29.359017
496.55,29.430637
498.133333,29.510968
499.0,29.624205
501.933333,29.767445
504.25,29.919396
506.683333,30.005533
508.4,30.048118
509.633333,30.069411
512.266667,30.085864
514.583333,30.086832
515.633333,30.597851
518.1,32.26834
520.4,34.264024
522.35,35.327678
524.133333,36.073882
526.15,36.604258
527.7,36.888802
530.833333,36.475535
532.383333,34.860212
534.166667,33.558469
536.4,32.88195
538.416667,32.446423
540.466667,32.135746
542.416667,31.902497
544.333333,31.678926
546.35,31.500844
548.4,31.348893
550.45,31.236624
552.05,31.121451
554.083333,30.992729
556.183333,30.848521
558.45,30.722702
560.8,30.623014
562.033333,30.543652
564.483333,30.486549
566.4,30.437189
568.316667,30.390733
570.566667,30.344277
571.816667,30.291046
574.483333,30.23975
575.7,30.171034
579.033333,30.114899
580.9,30.068443
582.933333,30.030697
585.383333,29.987144
586.683333,29.954238
589.366667,29.929074
590.583333,29.90391
592.45,29.877779
595.083333,29.849711
596.5,29.817773
598.383333,29.780995
600.716667,29.749056
602.35,29.718085
604.6,29.690986
606.716667,29.66679
608.683333,29.649369
610.9,29.629044
612.516667,29.60388
614.35,29.577749
616.666667,29.551617
618.65,29.526453
620.533333,29.499354
622.833333,29.472254
624.483333,29.437412
626.833333,29.397731
628.8,29.365792
629.1,29.335789
632.666667,29.302882
634.783333,29.269008
636.95,29.247716
638.583333,29.227391
640.516667,29.203195
643.083333,29.176096
644.733333,29.154803
646.683333,29.141253
648.333333,29.126736
650.933333,29.113186
652.866667,29.106411
655.066667,29.108347
657.516667,29.070601
670.866667,28.979624
672.85,28.892519
675.566667,28.872194
676.85,28.854773
679.05,28.842191
681.4,28.831545
682.533333,28.823802
685.3,28.820899
686.283333,30.021987
689.5,33.781072
690.783333,38.956106
692.783333,41.19762
701.75,40.532715
703.333333,38.083115
705.016667,36.455211
708.633333,35.877411
708.916667,35.563831
711.15,36.271321
713.05,40.889848
714.966667,47.754728
717.066667,48.803865
725.683333,44.935413
727.433333,40.256881
728.983333,38.960945
731.266667,37.98246
733.666667,37.437567
735.183333,41.776388
736.85,49.213261
739.066667,52.544561
748.933333,48.695467
749.3,45.094139
751.25,41.765742
