time,pressure
0.0,80.552408
0.090278,80.492402
0.340278,80.422717
0.470833,80.392714
0.471111,80.392714
0.471389,80.392714
0.471667,80.392714
0.471944,80.392714
0.472222,80.392714
0.4725,80.392714
0.472778,80.412071
0.473056,80.412071
0.473333,80.412071
0.473611,80.412071
0.473889,80.412071
0.507222,79.582633
0.540556,79.031933
0.573889,78.512204
0.607222,78.072805
0.640556,77.67212
0.673889,77.342087
0.707222,77.052703
0.740556,76.782676
0.773889,76.542652
0.807222,76.302628
0.840556,76.062604
0.873889,75.882586
0.907222,75.732571
0.940556,75.572877
0.973889,75.372535
1.007222,75.22252
1.040556,75.062826
1.073889,74.952493
1.107222,74.792799
1.140556,74.682466
1.173889,74.562454
1.207222,74.442442
1.240556,74.332108
1.273889,74.242099
1.307222,74.142412
1.340556,74.062081
1.373889,73.962394
1.407222,73.872385
1.440556,73.8027
1.473889,73.712691
1.507222,73.622682
1.540556,73.532673
1.573889,73.462021
1.607222,73.412661
1.640556,73.362334
1.673889,73.272325
1.707222,73.191994
1.740556,73.131988
1.773889,73.071982
1.807222,72.981973
1.840556,72.942292
1.873889,72.891964
1.907222,72.852283
1.940556,72.782598
1.973889,72.711946
2.007222,72.65194
2.040556,72.582256
2.073889,72.531928
2.107222,72.492247
2.140556,72.452565
2.173889,72.362556
2.207222,72.352878
2.240556,72.312229
2.273889,72.22222
2.307222,72.192217
2.340556,72.142857
2.373889,72.072205
2.407222,72.032523
2.440556,71.972517
2.473889,71.942514
2.507222,71.902833
2.540556,71.882508
2.573889,71.832181
2.607222,71.782821
2.640556,71.70249
2.673889,71.692812
2.707222,71.642484
2.740556,71.62216
2.773889,71.582478
2.807222,71.542797
2.840556,71.492469
2.873889,71.472145
2.907222,71.422785
2.940556,71.382136
2.973889,71.342454
3.007222,71.32213
3.040556,71.27277
3.073889,71.212764
3.107222,71.202118
3.140556,71.132433
3.173889,71.092752
3.207222,71.062749
3.240556,71.0221
3.273889,71.002743
3.307222,70.942737
3.340556,70.922412
3.373889,70.882731
3.407222,70.842082
3.440556,70.792722
3.473889,70.782076
3.507222,70.72207
3.540556,70.702713
3.573889,70.682388
3.607222,70.642707
3.640556,70.602058
3.673889,70.602058
3.707222,70.532373
3.740556,70.50237
3.773889,70.462689
3.807222,70.442364
3.840556,70.382358
3.873889,70.37268
3.907222,70.332031
3.940556,70.272025
3.973889,70.232343
4.007222,70.222665
4.040556,70.232343
4.073889,70.172337
4.107222,70.152013
4.140556,70.102653
4.173889,70.07265
4.207222,70.052325
4.240556,70.022322
4.273889,69.992319
4.307222,69.962316
4.340556,69.922635
4.373889,69.911989
4.407222,69.892632
4.440556,69.872307
4.473889,69.842304
4.507222,69.77262
4.540556,69.77262
4.573889,69.731971
4.607222,69.722292
4.640556,69.712614
4.673889,69.671965
4.707222,69.641962
4.740556,69.632283
4.773889,69.581956
4.807222,69.581956
4.840556,69.532596
4.873889,69.502593
4.907222,69.52195
4.940556,69.47259
4.973889,69.442587
5.007222,69.431941
5.040556,69.401938
5.073889,69.382581
5.107222,69.362256
5.140556,69.322575
5.173889,69.292572
5.207222,69.292572
5.240556,69.252891
5.273889,69.212241
5.307222,69.202563
5.340556,69.17256
5.373889,69.162882
5.407222,69.132879
5.440556,69.112554
5.473889,69.072873
5.507222,69.032223
5.540556,69.032223
5.573889,68.992542
5.607222,68.992542
5.640556,68.962539
5.673889,68.962539
5.707222,68.902533
5.740556,68.892855
5.773889,68.852205
5.807222,68.852205
5.840556,68.842527
5.873889,68.812524
5.907222,68.772843
5.940556,68.752518
5.973889,68.70219
6.007222,68.712837
6.040556,68.712837
6.073889,68.662509
6.107222,68.632506
6.140556,68.612181
6.173889,68.5725
6.207222,68.542497
6.240556,68.562822
6.273889,68.502816
6.307222,68.492169
6.340556,68.462166
6.373889,68.44281
6.407222,68.432163
6.440556,68.372157
6.473889,68.382804
6.507222,68.342154
6.540556,68.342154
6.573889,68.322798
6.607222,68.27247
6.640556,68.222142
6.673889,68.222142
6.707222,68.222142
6.740556,68.202786
6.773889,68.14278
6.807222,68.14278
6.840556,68.122455
6.873889,68.112777
6.907222,68.082774
6.940556,68.052771
6.973889,68.002443
7.007222,67.992765
7.040556,67.97244
7.073889,67.992765
7.107222,67.942437
7.140556,67.912434
7.173889,67.902756
7.207222,67.902756
7.240556,67.862106
7.273889,67.832103
7.307222,67.8021
7.340556,67.772097
7.373889,67.762419
7.407222,67.742094
7.440556,67.742094
7.473889,67.742094
7.507222,67.712091
7.540556,67.692735
7.573889,67.682088
7.607222,67.682088
7.640556,67.67241
7.673889,67.602726
7.707222,67.632729
7.740556,67.602726
7.773889,67.592079
7.807222,67.602726
7.840556,67.54272
7.873889,67.532073
7.907222,67.512717
7.940556,67.50207
7.973889,67.50207
8.007222,67.482714
8.040556,67.482714
8.073889,67.452711
8.107222,67.462389
8.140556,67.452711
8.173889,67.422708
8.207222,67.412061
8.240556,67.402383
8.273889,67.362702
8.307222,67.352055
8.340556,67.362702
8.373889,67.332699
8.407222,67.332699
8.440556,67.312374
8.473889,67.332699
8.507222,67.312374
8.540556,67.292049
8.573889,67.272693
8.607222,67.262046
8.640556,67.252368
8.673889,67.232043
8.707222,67.252368
8.740556,67.232043
8.773889,67.20204
8.807222,67.20204
8.840556,67.182684
8.873889,67.20204
8.907222,67.142034
8.940556,67.172037
8.973889,67.142034
9.007222,67.142034
9.040556,67.122678
9.073889,67.132356
9.107222,67.142034
9.140556,67.112031
9.173889,67.112031
9.207222,67.092675
9.240556,67.092675
9.273889,67.07235
9.307222,67.092675
9.340556,67.07235
9.373889,67.052025
9.407222,67.052025
9.440556,67.032669
9.473889,67.032669
9.507222,67.052025
9.540556,67.052025
9.573889,67.002666
9.607222,67.002666
9.640556,67.012344
9.673889,67.012344
9.707222,66.982341
9.740556,66.992019
9.773889,67.012344
9.807222,67.032669
9.840556,67.042347
9.873889,67.042347
9.907222,67.032669
9.940556,67.062672
9.973889,67.062672
10.007222,67.062672
10.040556,67.042347
10.073889,67.082028
10.107222,67.07235
10.140556,67.062672
10.173889,67.042347
10.207222,67.062672
10.240556,67.032669
10.273889,67.062672
10.307222,67.032669
10.340556,67.032669
10.373889,67.012344
10.407222,67.022022
10.440556,66.982341
10.473889,67.012344
10.507222,66.982341
10.540556,66.982341
10.573889,66.952338
10.607222,66.952338
10.640556,66.94266
10.673889,66.952338
10.707222,66.90201
10.740556,66.892332
10.773889,66.90201
10.807222,66.892332
10.840556,66.862329
10.873889,66.852651
10.907222,66.852651
10.940556,66.852651
10.973889,66.781998
11.007222,66.781998
11.040556,66.781998
11.073889,66.792645
11.107222,66.781998
11.140556,66.742317
11.173889,66.732639
11.207222,66.742317
11.240556,66.721992
11.273889,66.702636
11.307222,66.691989
11.340556,66.721992
11.373889,66.661986
11.407222,66.682311
11.440556,66.661986
11.473889,66.661986
11.507222,66.652308
11.540556,66.64263
11.573889,66.631983
11.607222,66.571977
11.640556,66.571977
11.673889,66.562299
11.707222,66.532296
11.740556,66.522618
11.773889,66.522618
11.807222,66.492615
11.840556,66.522618
11.873889,66.47229
11.907222,66.47229
11.940556,66.451965
11.973889,66.432609
12.007222,66.412284
12.040556,66.412284
12.073889,66.412284
12.107222,66.402606
12.140556,66.382281
12.173889,66.391959
12.207222,66.3426
12.240556,66.322275
12.273889,66.30195
12.307222,66.312597
12.340556,66.30195
12.373889,66.292272
12.407222,66.262269
12.440556,66.271947
12.473889,66.222588
12.507222,66.252591
12.540556,66.232266
12.573889,66.222588
12.607222,66.17226
12.640556,66.182906
12.673889,66.17226
12.707222,66.17226
12.740556,66.17226
12.773889,66.152903
12.807222,66.132579
12.840556,66.142257
12.873889,66.102576
12.907222,66.132579
12.940556,66.102576
12.973889,66.102576
13.007222,66.082251
13.040556,66.062894
13.073889,66.102576
13.107222,66.04257
13.140556,66.032891
13.173889,66.032891
13.207222,66.04257
13.240556,66.04257
13.273889,66.012567
13.307222,65.992242
13.340556,65.962239
13.373889,65.962239
13.407222,65.962239
13.440556,65.942882
13.473889,65.922558
13.507222,65.942882
13.540556,65.912879
13.573889,65.912879
13.607222,65.902233
13.640556,65.912879
13.673889,65.87223
13.707222,65.862552
13.740556,65.882876
13.773889,65.832549
13.807222,65.87223
13.840556,65.842227
13.873889,65.82287
13.907222,65.842227
13.940556,65.802546
13.973889,65.802546
14.007222,65.792867
14.040556,65.792867
14.073889,65.802546
14.107222,65.792867
14.140556,65.762864
14.173889,65.762864
14.207222,65.752218
14.240556,65.752218
14.273889,65.712537
14.307222,65.702858
14.340556,65.712537
14.373889,65.722215
14.407222,65.672855
14.440556,65.662209
14.473889,65.672855
14.507222,65.642852
14.540556,65.662209
14.573889,65.622528
14.607222,65.632206
14.640556,65.642852
14.673889,65.642852
14.707222,65.622528
14.740556,65.622528
14.773889,65.602203
14.807222,65.622528
14.840556,65.602203
14.873889,65.602203
14.907222,65.582846
14.940556,65.5722
14.973889,65.582846
15.007222,65.592525
15.040556,65.552843
15.073889,65.542197
15.107222,65.542197
15.140556,65.532519
15.173889,65.502516
15.207222,65.532519
15.240556,65.492837
15.273889,65.502516
15.307222,65.492837
15.340556,65.492837
15.373889,65.492837
15.407222,65.462834
15.440556,65.432831
15.473889,65.412507
15.507222,65.432831
15.540556,65.44251
15.573889,65.432831
15.607222,65.422185
15.640556,65.412507
15.673889,65.422185
15.707222,65.382504
15.740556,65.382504
15.773889,65.372825
15.807222,65.362179
15.840556,65.332176
15.873889,65.342822
15.907222,65.322498
15.940556,65.312819
15.973889,65.322498
16.007222,65.27217
16.040556,65.282816
16.073889,65.292495
16.107222,65.282816
16.140556,65.27217
16.173889,65.27217
16.207222,65.232489
16.240556,65.22281
16.273889,65.242167
16.307222,65.212164
16.340556,65.242167
16.373889,65.22281
16.407222,65.202486
16.440556,65.202486
16.473889,65.202486
16.507222,65.212164
16.540556,65.212164
16.573889,65.202486
16.607222,65.182161
16.640556,65.182161
16.673889,65.172483
16.707222,65.162804
16.740556,65.172483
16.773889,65.172483
16.807222,65.172483
16.840556,65.162804
16.873889,65.132801
16.907222,65.152158
16.940556,65.112476
16.973889,65.122155
17.007222,65.112476
17.040556,65.132801
17.073889,65.122155
17.107222,65.082473
17.140556,65.072795
17.173889,65.092152
17.207222,65.102798
17.240556,65.102798
17.273889,65.112476
17.307222,65.102798
17.340556,65.122155
17.373889,65.102798
17.407222,65.102798
17.440556,65.092152
17.473889,65.102798
17.507778,65.112476
17.541111,65.122155
17.574444,65.132801
17.607778,65.102798
17.641111,65.102798
17.674444,65.102798
17.707778,65.062149
17.741111,65.092152
17.774444,65.082473
17.807778,65.082473
17.841111,65.082473
17.874444,65.062149
17.907778,65.05247
17.941111,65.062149
17.974444,65.042792
18.007778,65.032146
18.041111,65.05247
18.074444,65.002143
18.107778,65.032146
18.141111,65.012789
18.174444,64.962461
18.207778,64.97214
18.241111,64.962461
18.274444,64.962461
18.307778,64.962461
18.341111,64.952783
18.374444,64.92278
18.407778,64.942137
18.441111,64.912134
18.474444,64.902455
18.507778,64.872452
18.541111,64.872452
18.574444,64.862774
18.607778,64.872452
18.641111,64.862774
18.674444,64.822125
18.707778,64.852128
18.741111,64.852128
18.774444,64.792122
18.807778,64.822125
18.841111,64.782443
18.874444,64.812446
18.907778,64.782443
18.941111,64.762119
18.974444,64.762119
19.007778,64.762119
19.041111,64.762119
19.074444,64.722437
19.107778,64.722437
19.141111,64.732116
19.174444,64.732116
19.207778,64.692434
19.241111,64.692434
19.274444,64.692434
19.307778,64.692434
19.341111,64.662431
19.374444,64.662431
19.407778,64.652753
19.441111,64.642107
19.474444,64.62275
19.507778,64.612104
19.541111,64.652753
19.574444,64.62275
19.607778,64.572422
19.641111,64.562744
19.674444,64.572422
19.707778,64.532741
19.741111,64.522095
19.774444,64.522095
19.807778,64.522095
19.841111,64.502738
19.874444,64.512416
19.907778,64.502738
19.941111,64.442732
19.974444,64.462089
20.007778,64.462089
20.041111,64.472735
20.074444,64.442732
20.107778,64.422407
20.141111,64.412729
20.174444,64.412729
20.207778,64.412729
20.241111,64.412729
20.274444,64.412729
20.307778,64.412729
20.341111,64.392404
20.374444,64.412729
20.407778,64.392404
20.441111,64.392404
20.474444,64.412729
20.507778,64.382726
20.541111,64.352723
20.574444,64.352723
20.607778,64.332398
20.641111,64.342077
20.674444,64.352723
20.707778,64.352723
20.741111,64.342077
20.774444,64.292717
20.807778,64.302395
20.841111,64.32272
20.874444,64.32272
20.907778,64.302395
20.941111,64.272392
20.974444,64.282071
21.007778,64.292717
21.041111,64.242389
21.074444,64.222065
21.107778,64.232711
21.141111,64.242389
21.174444,64.202708
21.207778,64.212386
21.241111,64.192062
21.274444,64.192062
21.307778,64.192062
21.341111,64.182383
21.374444,64.15238
21.407778,64.15238
21.441111,64.172705
21.474444,64.15238
21.507778,64.132056
21.541111,64.132056
21.574444,64.132056
21.607778,64.132056
21.641111,64.102053
21.674444,64.102053
21.707778,64.102053
21.741111,64.092374
21.774444,64.082696
21.807778,64.052693
21.841111,64.02269
21.874444,64.02269
21.907778,64.002365
21.941111,64.012044
21.974444,64.012044
22.007778,64.002365
22.041111,64.002365
22.074444,63.972362
22.107778,63.942359
22.141111,63.992687
22.174444,63.942359
22.207778,63.932681
22.241111,63.922035
22.274444,63.912356
22.307778,63.922035
22.341111,63.912356
22.374444,63.922035
22.407778,63.892032
22.441111,63.892032
22.474444,63.882353
22.507778,63.882353
22.541111,63.882353
22.574444,63.872675
22.607778,63.872675
22.641111,63.872675
22.674444,63.842672
22.707778,63.842672
22.741111,63.832026
22.774444,63.832026
22.807778,63.832026
22.841111,63.832026
22.874444,63.832026
22.907778,63.812669
22.941111,63.85235
22.974444,63.842672
23.007778,63.832026
23.041111,63.792344
23.074444,63.812669
23.107778,63.802023
23.141111,63.802023
23.174444,63.792344
23.207778,63.792344
23.241111,63.792344
23.274444,63.742017
23.307778,63.752663
23.341111,63.762341
23.374444,63.742017
23.407778,63.752663
23.441111,63.72266
23.474722,63.72266
23.508056,63.742017
23.541389,63.72266
23.574722,63.712014
23.608056,63.712014
23.641389,63.672332
23.674722,63.662654
23.708056,63.702335
23.741389,63.672332
23.774722,63.692657
23.808056,63.652008
23.841389,63.632651
23.874722,63.622005
23.908056,63.622005
23.941389,63.602648
23.974722,63.602648
24.008056,63.602648
24.041389,63.602648
24.074722,63.542642
24.108056,63.582323
24.141389,63.542642
24.174722,63.522317
24.208056,63.542642
24.241389,63.512639
24.274722,63.522317
24.308056,63.522317
24.341389,63.47199
24.374722,63.452633
24.408056,63.452633
24.441389,63.452633
24.474722,63.441987
24.508056,63.402305
24.541389,63.402305
24.574722,63.402305
24.608056,63.381981
24.641389,63.351978
24.674722,63.332621
24.708056,63.342299
24.741389,63.351978
24.774722,63.332621
24.808056,63.312296
24.841389,63.291972
24.874722,63.291972
24.908056,63.291972
24.941389,63.272615
24.974722,63.272615
25.008056,63.272615
25.041389,63.25229
25.074722,63.272615
25.108056,63.261969
25.141389,63.222287
25.174722,63.182606
25.208056,63.222287
25.241389,63.182606
25.274722,63.201963
25.308056,63.182606
25.341389,63.182606
25.374722,63.182606
25.408056,63.162281
25.441389,63.17196
25.474722,63.162281
25.508056,63.17196
25.541389,63.17196
25.574722,63.162281
25.608056,63.182606
25.641389,63.162281
25.674722,63.162281
25.708056,63.17196
25.741389,63.141957
25.774722,63.162281
25.808056,63.1226
25.841389,63.132278
25.874722,63.132278
25.908056,63.102275
25.941389,63.1226
25.974722,63.1226
26.008056,63.092597
26.041389,63.081951
26.074722,63.052916
26.108056,63.042269
26.141389,63.042269
26.174722,63.032591
26.208056,63.032591
26.241389,62.99291
26.274722,63.002588
26.308056,63.012266
26.341389,63.032591
26.374722,63.032591
26.408056,63.032591
26.441389,63.032591
26.474722,63.002588
26.508056,63.042269
26.541389,63.012266
26.574722,62.99291
26.608056,63.012266
26.641389,62.962907
26.674722,62.95226
26.708056,62.962907
26.741389,62.942582
26.774722,62.912579
26.808056,62.922257
26.841389,62.922257
26.874722,62.902901
26.908056,62.892254
26.941389,62.872898
26.974722,62.852573
27.008056,62.832248
27.041389,62.82257
27.074722,62.852573
27.108056,62.802245
27.141389,62.772242
27.174722,62.812892
27.208056,62.802245
27.241389,62.762564
27.274722,62.762564
27.308056,62.742239
27.341389,62.762564
27.374722,62.742239
27.408056,62.732561
27.441389,62.732561
27.474722,62.69288
27.508056,62.722883
27.541389,62.682233
27.574722,62.712236
27.608056,62.672555
27.641389,62.642552
27.674722,62.65223
27.708056,62.622227
27.741389,62.632874
27.774722,62.632874
27.808056,62.622227
27.841389,62.632874
27.874722,62.632874
27.908056,62.622227
27.941389,62.602871
27.974722,62.622227
28.008056,62.642552
28.041389,62.592224
28.074722,62.632874
28.108056,62.622227
28.141389,62.602871
28.174722,62.592224
28.208056,62.552543
28.241389,62.562221
28.274722,62.562221
28.308056,62.552543
28.341389,62.532218
28.374722,62.552543
28.408056,62.542865
28.441389,62.512862
28.474722,62.532218
28.508056,62.532218
28.541389,62.502215
28.574722,62.502215
28.608056,62.492537
28.641389,62.472212
28.674722,62.502215
28.708056,62.452856
28.741389,62.452856
28.774722,62.452856
28.808056,62.412206
28.841389,62.442209
28.874722,62.422853
28.908056,62.39285
28.941389,62.362847
28.974722,62.362847
29.008056,62.382203
29.041389,62.362847
29.074722,62.362847
29.108056,62.332844
29.141389,62.332844
29.174722,62.322197
29.208056,62.302841
29.241389,62.292194
29.274722,62.272838
29.308056,62.282516
29.341389,62.272838
29.374722,62.272838
29.408056,62.272838
29.441389,62.242835
29.474722,62.242835
29.508056,62.212832
29.541389,62.202185
29.574722,62.252513
29.608056,62.22251
29.641389,62.232188
29.674722,62.252513
29.708056,62.242835
29.741389,62.242835
29.774722,62.252513
29.808056,62.22251
29.841389,62.242835
29.874722,62.242835
29.908056,62.212832
29.941389,62.212832
29.974722,62.202185
30.008056,62.212832
30.041389,62.192507
30.074722,62.202185
30.108056,62.192507
30.141389,62.182829
30.174722,62.212832
30.208056,62.182829
30.241389,62.212832
30.274722,62.192507
30.308056,62.212832
30.341389,62.192507
30.374722,62.182829
30.408056,62.142179
30.441389,62.162504
30.474722,62.152826
30.508056,62.192507
30.541389,62.182829
30.574722,62.122823
30.608056,62.142179
30.641389,62.162504
30.674722,62.132501
30.708056,62.09282
30.741389,62.112176
30.774722,62.112176
30.808056,62.112176
30.841389,62.09282
30.874722,62.09282
30.908056,62.05217
30.941389,62.09282
30.974722,62.072495
31.008056,62.042492
31.041389,62.042492
31.074722,62.032814
31.108056,62.032814
31.141389,62.032814
31.174722,62.032814
31.208056,62.002811
31.241389,62.022167
31.274722,62.022167
31.308056,62.002811
31.341389,61.992164
31.374722,61.962161
31.408056,61.982486
31.441389,61.982486
31.474722,61.962161
31.508056,61.962161
31.541389,61.952483
31.574722,61.952483
31.608056,61.962161
31.641389,61.952483
31.674722,61.942805
31.708056,61.902155
31.741389,61.912802
31.774722,61.892477
31.808056,61.862474
31.841389,61.892477
31.874722,61.852796
31.908056,61.852796
31.941389,61.822793
31.974722,61.842149
32.008056,61.822793
32.041389,61.822793
32.074722,61.842149
32.108056,61.812146
32.141389,61.812146
32.174722,61.79279
32.208056,61.772465
32.241111,61.75214
32.274444,61.772465
32.307778,61.732784
32.341111,61.732784
32.374444,61.722137
32.407778,61.712459
32.441111,61.702781
32.474444,61.682456
32.507778,61.682456
32.541111,61.682456
32.574444,61.672778
32.607778,61.642775
32.641111,61.652453
32.674444,61.632128
32.707778,61.62245
32.741111,61.632128
32.774444,61.602125
32.807778,61.582769
32.841111,61.592447
32.874444,61.582769
32.907778,61.552766
32.941111,61.542119
32.974444,61.542119
33.007778,61.552766
33.041111,61.552766
33.074444,61.512116
33.107778,61.502438
33.141111,61.502438
33.174444,61.49276
33.207778,61.502438
33.241111,61.462757
33.274444,61.462757
33.307778,61.442432
33.341111,61.462757
33.374444,61.462757
33.407778,61.45211
33.441111,61.442432
33.474444,61.442432
33.507778,61.442432
33.541111,61.422107
33.574444,61.422107
33.607778,61.402751
33.641111,61.422107
33.674444,61.402751
33.707778,61.392104
33.741111,61.382426
33.774444,61.352423
33.807778,61.372748
33.841111,61.352423
33.874444,61.372748
33.907778,61.332098
33.941111,61.352423
33.974444,61.32242
