time,pressure
0.0,170.834508
0.25,167.434491
0.5,164.634534
0.75,162.234293
1.0,159.834053
1.5,155.833976
2.0,152.134896
3.0,145.734579
4.0,139.234574
5.0,135.034154
6.0,131.634137
7.0,128.334774
10.416667,121.634427
15.083333,113.534585
19.5,105.434743
21.666667,99.534798
25.083333,98.134335
26.083333,96.934215
27.916667,94.734318
29.916667,92.635075
30.833333,91.63433
32.75,89.734463
35.5,87.234535
42.916667,79.635066
43.916667,78.734976
45.75,77.634543
50.5,75.034928
55.166667,72.634688
57.916667,71.434568
59.083333,71.034851
63.5,69.435014
67.916667,68.034551
70.833333,69.334358
71.833333,68.834954
72.833333,68.334581
73.783333,67.934864
73.833333,68.434268
75.333333,67.434491
76.333333,67.034774
77.333333,66.635056
78.333333,66.234371
79.333333,65.934341
80.333333,65.634311
81.333333,65.334281
82.333333,65.034251
83.333333,64.734221
84.083333,64.534846
87.916667,65.334281
90.75,64.734221
93.416667,64.234816
99.25,63.134383
102.25,62.534323
107.333333,61.534546
111.083333,60.934486
120.833333,60.135051
123.75,59.534991
126.75,59.034619
131.666667,58.234216
163.083333,59.434336
187.083333,57.335094
211.083333,55.634601
235.083333,54.734511
259.083333,53.734734
283.083333,52.634301
307.083333,51.735179
331.083333,51.135119
355.083333,50.734434
379.083333,50.334716
403.083333,49.934999
427.083333,49.734656
451.083333,49.934999
475.083333,49.934999
499.083333,49.834344
523.083333,49.734656
547.083333,49.834344
571.083333,49.834344
595.083333,49.834344
619.083333,49.834344
643.083333,50.034686
667.083333,50.034686
691.083333,50.235029
715.083333,50.235029
739.083333,50.235029
763.083333,50.535059
787.083333,50.734434
811.083333,51.234806
835.083333,53.434704
859.083333,55.234884
883.083333,53.234361
907.083333,50.434404
931.083333,49.334939
955.083333,49.234284
979.083333,48.734879
1003.083333,48.234506
1027.083333,47.634446
1051.083333,46.634669
1075.083333,49.934999
1099.083333,51.834866
1123.083333,53.234361
1147.083333,54.434481
1171.083333,54.734511
1195.083333,54.734511
1219.083333,70.035074
1243.083333,88.834373
1267.083333,82.234681
1291.083333,74.934273
1315.083333,71.134538
1339.083333,69.435014
1363.083333,68.734298
1387.083333,64.334504
1411.083333,61.434859
1435.083333,59.334649
1459.083333,57.234439
1483.083333,55.234884
1507.083333,53.834421
1531.083333,53.635046
1555.083333,52.934331
1579.083333,52.034241
1603.083333,51.234806
1627.083333,50.434404
1651.083333,49.834344
1675.083333,49.434626
1699.083333,49.234284
1723.083333,49.634969
1747.083333,50.134374
1771.083333,49.734656
1795.083333,50.334716
1819.083333,54.634824
1843.083333,56.334349
1867.083333,57.935154
1891.083333,59.234961
1915.083333,60.534769
1939.083333,61.434859
1963.083333,62.434636
1987.083333,63.235039
2011.083333,63.934786
2035.083333,64.534846
2059.083333,65.134906
2083.083333,65.634311
2107.083333,66.134684
2131.083333,66.335026
2155.083333,66.234371
2179.083333,59.734366
2203.083333,55.934631
2227.083333,53.534391
2251.083333,51.735179
2275.083333,51.934554
2299.083333,59.734366
2323.083333,60.334426
2347.083333,61.234516
2371.083333,61.834576
2395.083333,62.234293
2419.083333,57.834499
2443.083333,52.534614
2467.083333,50.734434
2491.083333,50.034686
2515.083333,51.135119
2539.083333,55.034541
2563.083333,57.134751
2587.083333,58.834276
2611.083333,59.934709
2635.083333,61.035141
2659.083333,61.834576
2683.083333,62.334949
2707.083333,62.834353
2731.083333,63.535069
2755.083333,64.034473
2779.083333,64.234816
2803.083333,63.535069
2827.083333,56.134974
2851.083333,52.234584
2875.083333,52.834644
2899.083333,60.234739
2923.083333,62.434636
2947.083333,63.134383
2971.083333,63.734443
2995.083333,64.234816
3019.083333,65.634311
3043.083333,65.634311
3067.083333,65.934341
3091.083333,66.234371
3115.083333,66.635056
3139.083333,77.034483
3163.083333,92.734763
3187.083333,92.53442
3211.083333,92.335045
3235.083333,91.3343
3259.083333,82.534711
3283.083333,77.234826
3307.083333,75.034928
3331.083333,69.834731
3355.083333,61.934263
3379.083333,57.734811
3403.083333,54.634824
3427.083333,51.934554
3451.083333,51.334494
3475.083333,56.634379
3499.083333,59.534991
3523.083333,61.434859
3547.083333,63.034696
3571.083333,64.334504
3595.083333,67.134461
3619.083333,68.534924
3643.083333,68.834954
3667.083333,69.334358
3691.083333,70.534478
3715.083333,73.034406
3739.083333,72.434346
3763.083333,72.434346
3787.083333,72.535001
3811.083333,72.535001
3835.083333,63.835099
3859.083333,57.134751
3883.083333,54.835166
3907.083333,52.634301
3931.083333,50.835089
3955.083333,50.434404
3979.083333,50.535059
4003.083333,52.934331
4027.083333,58.834276
4051.083333,59.334649
4075.083333,62.434636
4099.083333,64.135129
4123.083333,65.634311
4147.083333,66.434714
4171.083333,67.434491
4195.083333,68.334581
4219.083333,69.134984
4243.083333,69.834731
4267.083333,70.234448
4291.083333,70.434791
4315.083333,70.635134
4339.083333,71.234226
4363.083333,71.634911
4387.083333,72.034628
4411.083333,72.334658
4435.083333,68.534924
4459.083333,59.234961
4483.083333,54.334794
4507.083333,50.734434
4531.083333,47.834789
4555.083333,45.434549
4579.083333,44.134742
4603.083333,42.834934
4627.083333,41.634814
4651.083333,41.334784
4675.083333,44.935144
4699.083333,48.534536
4723.083333,51.234806
4747.083333,53.434704
4771.083333,54.634824
4795.083333,55.734289
4819.083333,56.034319
4843.083333,50.934776
4867.083333,48.335162
4891.083333,46.734356
4915.083333,46.835012
4939.083333,50.835089
4963.083333,54.334794
4987.083333,56.435004
5011.083333,58.334871
5035.083333,58.334871
5059.083333,52.534614
5083.083333,54.934854
5107.083333,57.234439
5131.083333,58.334871
5155.083333,58.534246
5179.083333,52.534614
5203.083333,48.734879
5227.083333,45.634892
5251.083333,43.234652
5275.083333,44.234429
5299.083333,49.034909
5323.083333,51.334494
5347.083333,54.835166
5371.083333,56.034319
5395.083333,57.834499
5419.083333,59.334649
5443.083333,60.634456
5467.083333,61.334203
5491.083333,53.534391
5515.083333,55.634601
5539.083333,53.134674
5563.083333,49.934999
5587.083333,47.234729
5611.083333,45.134519
5635.083333,43.334339
5659.083333,42.135187
5683.083333,41.134442
5707.083333,40.234352
5731.083333,39.834634
5755.083333,39.335229
5779.083333,40.234352
5803.083333,44.134742
5827.083333,41.634814
5851.083333,43.234652
5875.083333,44.834489
5899.083333,41.434472
5923.083333,38.934544
5947.083333,37.634737
5971.083333,36.934989
5995.083333,36.734647
6019.083333,39.634292
6043.083333,42.834934
6067.083333,44.534459
6091.083333,45.734579
6115.083333,45.934922
6139.083333,47.334416
6163.083333,44.035054
6187.083333,46.534982
6211.083333,48.035132
6235.083333,49.234284
6259.083333,48.635192
6283.083333,49.634969
6307.083333,50.535059
6331.083333,46.934699
6355.083333,44.134742
6379.083333,41.835157
6403.083333,39.434917
6427.083333,37.634737
6451.083333,36.634959
6475.083333,36.634959
6499.083333,40.834412
6523.083333,37.634737
6547.083333,36.034899
6571.083333,35.635182
6595.083333,35.534527
6619.083333,37.034677
6643.083333,40.234352
6667.083333,41.034754
6691.083333,38.334484
6715.083333,36.334929
6739.083333,37.235019
6763.083333,40.834412
6787.083333,42.734279
6811.083333,39.234574
6835.083333,38.634514
6859.083333,38.034454
6883.083333,36.334929
6907.083333,36.234274
6931.083333,38.934544
