time,pressure
0.0,145.86525
0.172222,145.778144
0.497778,142.913335
0.926111,138.85808
1.131667,137.174037
1.399444,135.238355
1.608889,133.757558
1.843611,132.209012
2.118056,130.641109
2.483333,128.550573
2.7,127.418198
2.960278,126.024507
3.236389,124.475962
3.540278,122.888702
3.743889,121.901504
3.969722,120.759452
4.216389,119.67547
4.544444,118.262422
4.763611,117.381686
5.4075,114.768515
5.4925,114.420092
5.78,113.33611
6.405,111.02297
6.635833,110.248697
6.95,109.126002
7.149722,108.438834
7.480556,107.412923
7.718056,106.648328
8.005556,105.796628
8.221111,105.148175
8.5625,104.093228
8.736944,103.580272
9.011944,102.73825
9.234722,102.089797
9.531111,101.238097
9.785,100.560608
10.077778,99.766978
10.378056,98.953992
10.582778,98.441036
10.808333,97.908723
11.124444,97.115093
11.740556,95.508477
11.940833,95.024557
12.164444,94.501922
12.472778,93.756685
12.749167,93.11791
13.204444,92.072641
13.385,92.072641
13.518611,91.433866
13.753056,90.959624
13.9925,90.466025
14.361389,89.711109
14.409444,89.711109
14.583611,89.227188
14.683056,89.227188
14.786667,88.79166
15.109722,88.133528
15.640556,87.097938
15.691111,87.097938
15.830278,86.749515
15.942778,86.749515
16.033889,86.381736
16.245278,85.975242
16.557778,85.413894
16.761111,84.997723
16.961111,84.997723
16.980556,84.581551
17.245833,84.581551
17.3725,83.845992
17.582778,83.478212
17.925556,82.849116
18.145,82.500693
18.358889,82.500693
18.519167,81.871596
18.678889,81.871596
18.793889,81.416711
19.095,80.942469
19.437778,80.381121
19.679167,80.02302
19.681389,80.02302
19.933333,79.645562
19.935278,79.645562
20.207222,79.22939
20.578889,78.67772
20.800833,78.387368
20.981389,78.387368
21.077222,78.25187
21.233611,78.25187
21.406667,77.613095
21.7125,77.032391
21.919722,76.635576
22.224722,76.112941
22.362778,76.112941
22.559722,75.561272
22.671111,75.561272
22.794722,75.193492
23.118889,74.699893
23.437778,74.215973
23.658056,73.896585
23.672778,73.896585
23.931111,73.49977
23.933611,73.49977
24.18,73.07392
24.481667,72.609357
24.671111,72.328683
24.895278,71.98026
24.976667,71.98026
25.105833,71.660872
25.35,71.660872
25.413056,71.205987
25.700556,70.799494
25.924167,70.499463
26.196944,70.122005
26.3525,70.122005
26.546944,69.609049
26.648333,69.609049
26.756667,69.29934
26.966389,69.028345
27.150278,68.776706
27.526944,68.312142
27.653611,68.312142
27.827222,67.963719
27.904167,67.963719
28.040833,67.673367
28.2375,67.441085
28.543611,67.034592
28.750278,66.773275
28.961944,66.773275
28.984167,66.492601
29.224444,66.492601
29.503056,65.795755
29.764167,65.466689
29.991389,65.195694
30.237222,64.885985
30.243889,64.885985
30.501111,64.885985
30.551111,64.508527
30.811389,64.160104
31.085278,63.772967
31.388333,63.405188
31.511111,63.405188
31.596667,63.163227
31.766667,63.163227
31.824167,62.921267
32.040556,62.679307
32.242222,62.466382
32.515833,62.156673
32.713611,61.943748
32.815278,61.943748
32.920833,61.701787
33.083611,61.701787
33.1425,61.479184
33.451944,61.150118
33.745833,60.801695
33.963889,60.550056
34.088056,60.550056
34.241389,60.230669
34.344444,60.230669
34.545278,59.911281
34.7475,59.698356
34.953611,59.466074
35.143611,59.262828
35.360278,59.262828
35.465,58.904727
35.626111,58.904727
35.658611,58.691802
35.873611,58.488555
36.089444,58.256273
36.482778,57.859458
36.627778,57.859458
36.762222,57.598141
36.917778,57.598141
37.040278,57.375538
37.408333,57.075507
37.618333,56.881939
37.8525,56.669014
37.941389,56.669014
38.057778,56.494802
38.231111,56.494802
38.446667,56.165736
38.725,55.933454
38.987222,55.691494
39.251111,55.459212
39.356667,55.459212
39.570556,55.22693
39.608056,55.22693
39.793611,55.062397
39.997778,54.907543
40.196111,54.733331
40.5175,54.481693
40.669167,54.481693
40.826111,54.249411
40.9575,54.249411
41.002222,54.13327
41.218889,53.959059
41.766944,53.562244
41.971111,53.562244
42.056944,53.320283
42.353333,53.320283
42.395,53.078323
42.646944,52.894433
42.928889,52.642795
43.135278,52.468583
43.388333,52.468583
43.444167,52.178231
43.649444,52.178231
43.728333,52.817006
43.943056,53.417068
44.116944,53.842918
44.376389,54.472014
44.639722,54.994649
44.658611,54.994649
44.912222,55.41082
44.917778,55.41082
45.074167,55.614067
45.433611,56.010882
45.716667,56.252842
45.923611,56.252842
45.949722,56.417375
46.157222,56.57223
46.191111,56.57223
46.571667,56.823868
46.853889,56.969044
47.089167,57.065829
47.246944,57.065829
47.546667,57.065829
47.741111,57.211005
47.967222,57.230362
48.230556,57.269075
48.560833,57.356181
48.563056,57.356181
48.831944,57.404573
48.833889,57.404573
49.083889,57.452965
49.474167,57.462643
49.6875,58.382092
49.872222,58.382092
49.977778,58.004634
50.138611,58.004634
50.222778,57.878815
50.641111,57.791709
50.909444,57.791709
51.153333,57.791709
51.175556,57.840101
51.413611,57.840101
51.558056,96.263393
51.817778,115.475039
52.086944,104.441651
52.379722,97.182842
52.451944,97.182842
52.5925,93.321156
52.730833,93.321156
52.880833,90.117602
53.488611,85.471965
53.572778,84.929974
53.740556,84.929974
53.792778,83.584675
53.993333,82.403909
53.995278,82.403909
54.518333,79.868165
54.7675,79.10357
55.04,79.10357
55.063889,78.242192
55.350556,78.242192
55.374167,77.409849
55.645,76.742038
55.890833,76.200047
56.182778,75.629021
56.389444,75.629021
56.609444,74.84507
56.688889,74.84507
56.817222,74.506325
57.133889,74.003048
57.531667,73.461057
57.723611,73.461057
57.778611,73.122312
57.976667,73.122312
58.058889,72.744854
58.419722,72.289969
58.661389,72.018974
58.935278,71.718943
59.022222,71.718943
59.158889,71.486661
59.374722,71.486661
59.461111,71.235022
59.729722,70.828529
59.989167,70.654318
60.372778,70.373644
60.379167,70.373644
60.598056,70.209111
60.649722,70.209111
60.872222,70.015543
61.136667,69.812296
61.519167,69.5413
61.652778,69.5413
61.749167,69.367089
61.926667,69.367089
62.005556,69.183199
62.254722,69.018666
62.587222,68.786384
62.777222,68.63153
62.935278,68.63153
62.999444,68.466997
63.193889,68.466997
63.373889,68.176644
63.573611,68.031468
63.771389,67.886292
63.976667,67.741116
64.210278,67.576583
64.213056,67.576583
64.502222,67.576583
64.5725,67.324944
64.973056,67.082984
65.170556,66.937808
65.4825,66.695848
65.542778,66.695848
65.751111,66.511958
65.815,66.511958
65.974722,66.328068
66.169167,66.19257
66.480556,65.979645
66.753889,65.795755
66.816667,65.795755
66.973611,65.650579
67.076944,65.650579
67.178889,65.52476
67.486667,65.350548
67.732222,65.186015
68.021389,65.021482
68.100278,65.021482
68.366111,64.818236
68.368056,64.818236
68.584722,64.682738
68.913333,64.48917
69.140556,64.373029
69.504167,64.179461
69.730833,64.053641
69.975278,63.908465
70.213056,63.763289
70.528611,63.569721
70.710278,63.472937
70.851111,63.405188
70.968333,63.318082
71.444722,63.056765
71.654167,62.950302
72.191667,62.534131
72.598056,62.224422
72.835,62.059889
73.063333,61.895356
73.455556,61.634039
73.674722,61.498541
73.897222,61.372721
74.098333,61.372721
74.125,61.256581
74.492778,61.063012
74.686667,60.966228
74.926389,60.801695
75.1,60.801695
75.541944,60.308096
75.993611,59.969352
76.220556,59.785462
76.550833,59.582215
76.808611,59.427361
77.085,59.253149
77.604444,58.972475
77.896111,58.807943
78.08,58.720837
78.426389,58.556304
78.660278,58.372414
78.847222,58.372414
78.906667,58.178846
79.124444,58.023991
79.503889,57.772353
79.716667,57.656212
79.895278,57.656212
80.012778,57.482
80.168056,57.482
80.393333,57.24004
80.716944,57.065829
81.036389,56.910974
81.230278,56.910974
81.409722,56.68837
81.530556,56.68837
81.606944,56.581908
82.0475,56.349626
82.408611,56.146379
82.550556,56.146379
82.630278,56.030239
82.811944,56.030239
82.923889,55.885062
83.204444,55.720529
83.533611,55.555996
83.704722,55.449534
83.850556,55.449534
83.925556,55.343071
84.127778,55.343071
84.15,55.217252
84.502222,55.081754
84.782778,54.9269
84.994722,54.791402
85.196111,54.791402
85.221111,54.752688
85.493333,54.752688
85.573611,54.578477
85.815278,54.442979
86.065833,54.31716
86.413611,54.181662
86.507778,54.181662
86.62,54.065521
86.762222,54.065521
86.901667,53.920345
87.200278,53.784847
87.530556,53.639671
87.752778,53.542887
87.793333,53.542887
88.065,53.542887
88.094444,53.407389
88.463889,53.242856
88.666944,53.165429
88.885556,53.078323
89.113611,53.078323
89.226944,52.942825
89.422778,52.942825
89.567222,52.807328
89.841667,52.700865
90.148611,52.594403
90.433333,52.594403
90.518333,52.468583
90.710278,52.468583
90.734167,52.381478
90.961389,52.275015
91.226667,52.178231
91.620556,52.023376
91.735278,52.023376
91.901389,51.916914
92.044722,51.916914
92.143611,51.839487
92.460833,51.713667
92.703333,51.626562
93.028056,51.510421
93.089722,51.510421
93.409444,51.510421
93.431111,51.336209
93.688333,51.220068
93.975556,51.094249
94.192222,51.007143
94.409444,51.007143
94.511667,50.861967
94.720556,50.861967
94.794722,50.726469
95.051111,50.620007
95.418889,50.474831
95.641944,50.397403
95.725278,50.397403
95.942222,50.271584
96.008611,50.271584
96.146389,50.203835
96.438056,50.107051
96.671944,50.019945
96.903611,49.923161
97.010556,49.923161
97.191111,49.836055
97.429167,49.836055
97.548333,49.710236
97.771944,49.652166
98.0025,49.594095
98.2425,49.526346
98.4525,49.526346
98.733889,49.38117
98.735833,49.38117
98.970278,49.294064
99.273056,49.206959
99.621944,49.090818
99.737778,49.090818
100.041111,49.090818
100.183056,48.906928
100.540556,48.800465
100.766667,48.742395
101.041111,48.742395
101.345833,48.742395
101.603333,48.490756
101.779722,48.432686
102.132222,48.28751
102.361389,48.28751
102.488889,48.181047
102.634444,48.181047
102.740833,48.093941
102.986667,48.006836
103.2475,47.91973
103.565556,47.832624
103.639167,47.832624
103.7775,47.755197
103.921389,47.755197
104.05,47.658413
104.503889,47.49388
104.798611,47.377739
104.935,47.377739
105.111111,47.290633
105.207222,47.290633
105.410278,47.213206
105.6825,47.155136
105.914444,47.087387
106.138056,47.038995
106.209167,47.038995
106.483333,47.038995
106.508889,46.942211
106.741111,46.88414
107.028333,46.797034
107.251944,46.719607
107.514167,46.719607
107.564167,46.64218
107.758889,46.584109
107.765833,46.584109
108.387222,46.40022
108.614444,46.313114
108.817222,46.313114
108.865833,46.226008
109.135556,46.226008
109.156944,46.138902
109.473889,46.022762
109.780556,45.935656
110.037222,45.84855
110.152222,45.84855
110.361389,45.722731
110.443056,45.722731
110.575556,45.654982
110.760278,45.596911
110.973056,45.529163
111.201111,45.451735
111.4575,45.451735
111.588889,45.325916
111.791111,45.325916
111.867778,45.23881
112.158056,45.142026
112.474722,45.045242
112.807222,45.045242
112.988056,44.900066
113.078056,44.900066
113.365556,44.764568
113.574167,44.696819
113.768889,44.62907
113.996389,44.571
114.116389,44.571
114.235,44.493573
114.425833,44.493573
114.483056,44.435502
115.033611,44.300004
115.234722,44.251612
115.449167,44.251612
115.555,44.038687
115.762778,43.941903
116.003333,43.883833
116.268056,43.806405
116.583333,43.748335
116.773889,43.690264
116.982778,43.641872
117.265,43.564445
117.581111,43.487018
117.875833,43.419269
118.156389,43.35152
118.491111,43.254736
118.729167,43.196665
119.0225,43.128917
119.378056,43.051489
119.600278,43.012776
119.839722,42.954705
120.022222,42.915992
120.229167,42.877278
120.513056,42.780494
120.776667,42.722423
120.978889,42.674031
121.149722,42.625639
121.511667,42.528855
121.724167,42.480463
121.994167,42.422393
122.261111,42.364322
122.575,42.296573
122.783333,42.25786
123.095833,42.180432
123.393333,42.122362
123.690833,42.083648
123.91,42.015899
124.122778,41.986864
124.467778,41.919115
124.806944,41.851366
125.081944,41.783617
125.673333,41.64812
125.839167,41.599728
126.083333,41.551336
126.534444,41.435195
126.8225,41.348089
127.0425,41.290018
127.389722,41.193234
127.613611,41.135164
127.819444,41.077093
128.059444,41.019023
128.524444,40.893204
128.828889,40.806098
129.201389,40.709314
129.610556,40.622208
129.892778,40.544781
130.215556,40.457675
130.719722,40.331856
131.0325,40.235072
131.426111,40.138288
131.701944,40.080217
131.978889,40.022147
132.272222,39.944719
132.6975,39.847935
133.015,39.76083
133.386944,39.664045
133.668056,39.596297
133.910278,39.538226
134.569444,39.373693
134.862222,39.286587
135.163889,39.20916
135.562222,39.112376
135.836667,39.054306
136.200556,38.957521
136.575,38.880094
136.957222,38.78331
137.415,38.696204
137.71,38.638134
138.4075,38.492958
138.663889,38.444566
138.948333,38.396174
139.236944,38.328425
139.608056,38.241319
139.85,38.202605
140.12,38.154213
140.488333,38.086464
140.813333,38.028394
141.103056,37.980002
141.538889,37.902575
141.848056,37.844504
142.173333,37.844504
142.201944,37.767077
142.606111,37.68965
142.930278,37.621901
143.194722,37.621901
143.231944,37.56383
143.606667,37.496081
143.887222,37.438011
144.223889,37.389619
144.687778,37.292835
145.031111,37.234764
145.181667,37.234764
145.448889,37.167015
145.734722,37.13798
146.015,37.099267
146.189444,37.099267
146.381389,37.050874
146.488333,37.050874
146.678611,37.021839
146.936111,36.973447
147.213611,36.925055
147.501667,36.925055
147.595556,36.886341
147.775,36.886341
147.893611,36.847628
148.242222,36.779879
148.713611,36.731487
148.775833,36.731487
149.024722,36.692773
149.026944,36.692773
149.752222,36.595989
149.951389,36.557275
150.036111,36.557275
150.378056,36.557275
150.408333,36.489527
150.7,36.450813
150.9775,36.402421
151.4,36.334672
151.406111,36.334672
151.708611,36.266923
152.010833,36.218531
152.532222,36.131425
152.706111,36.131425
153.146667,36.034641
153.540833,35.966892
153.791111,35.908822
154.102222,35.870108
154.501944,35.792681
154.774722,35.744289
155.051389,35.686218
155.493889,35.61847
155.761111,35.570078
156.044167,35.531364
156.389167,35.473293
156.705278,35.424901
156.9675,35.395866
157.259722,35.337796
157.639444,35.270047
157.927222,35.221655
158.266111,35.173263
158.660833,35.124871
158.987778,35.076479
159.455833,34.999051
159.757778,34.950659
160.066389,34.911946
160.482778,34.844197
160.756389,34.776448
161.051667,34.660307
161.461111,34.58288
162.113611,34.45706
162.485833,34.39899
162.744444,34.321563
163.038333,34.253814
163.370278,34.224778
163.643333,34.186065
163.931944,34.147351
164.053333,34.147351
164.395556,34.118316
164.730278,34.089281
165.025278,34.089281
165.4125,34.011853
166.114167,33.963461
166.542222,33.924748
166.835833,33.886034
167.112222,33.876356
167.824722,33.818285
168.096111,33.798928
168.487778,33.760215
168.781111,33.740858
169.033889,33.711823
169.433056,33.682787
169.739167,33.644074
170.039444,33.634395
170.405556,33.60536
170.707778,33.566646
171.023611,33.537611
171.41,33.518254
171.759444,33.489219
172.075,33.469862
172.484167,33.450506
172.820278,33.450506
173.083889,33.450506
173.728333,33.411792
173.881667,33.402113
174.158333,33.392435
174.482222,33.392435
174.524722,33.3634
174.843333,33.353721
175.113611,33.334365
175.4975,33.315008
175.780833,33.285973
175.783056,33.285973
176.140833,33.266616
176.604444,33.237581
177.153056,33.237581
177.178333,33.198867
177.59,33.169832
177.875278,33.160153
178.419722,33.160153
178.601111,33.102083
178.891389,33.082726
179.259722,33.053691
179.650556,33.024655
179.716944,33.024655
180.006667,32.985942
180.265,32.966585
180.655278,32.93755
180.944444,32.908515
181.016667,32.908515
181.200556,32.889158
181.593889,32.860122
181.868056,32.840766
182.126667,32.821409
182.393333,32.821409
182.487222,32.792374
182.760278,32.773017
183.131111,32.75366
183.508611,32.724625
183.724444,32.724625
183.861667,32.695589
184.124722,32.685911
184.478333,32.656876
184.771389,32.627841
185.048611,32.627841
185.146667,32.627841
185.568611,32.56977
185.925833,32.560092
186.223611,32.531056
186.395833,32.531056
186.678889,32.5117
186.98,32.482664
187.253889,32.463308
187.626667,32.434272
187.682222,32.434272
187.955556,32.414916
188.451944,32.356845
188.740833,32.453629
188.991111,32.453629
189.017222,32.763338
189.398611,34.892589
189.678889,36.247566
189.968611,37.32187
190.245556,38.299389
190.426389,38.299389
190.655556,39.615653
190.963611,40.457675
191.424167,39.141411
191.7475,40.051182
191.754722,40.051182
192.051667,41.270662
192.416111,40.051182
192.698333,40.651243
192.981667,41.938472
193.017778,41.938472
193.383333,41.115807
193.676667,40.535102
193.966944,40.525424
194.409167,40.525424
194.445,40.177001
194.728333,40.235072
195.015833,40.167323
195.276944,39.809222
195.669722,39.809222
195.680278,39.809222
195.958889,39.480156
196.678056,39.422085
196.968056,39.20916
196.970278,39.20916
197.672778,39.354336
197.8,39.131733
198.09,39.093019
198.366667,39.093019
198.545556,39.286587
198.831667,39.122054
199.1975,39.170446
199.605833,38.822024
199.649167,38.822024
199.846389,39.005913
200.126389,38.78331
200.515278,38.889773
200.864722,38.851059
200.9625,38.851059
201.254167,38.521993
201.649444,38.41553
201.958611,38.221962
202.245278,38.212284
202.354167,38.212284
202.653056,38.105821
202.933611,37.921931
203.224722,37.980002
203.606111,37.74772
203.612778,37.74772
203.901667,37.950967
204.171667,37.960645
204.539444,38.018716
204.845833,37.950967
204.874167,37.950967
205.114444,37.738042
205.4675,37.709006
205.651667,37.74772
205.653611,37.74772
206.026389,37.805791
206.403889,37.612222
206.729722,37.467046
207.114722,37.176694
207.5175,37.176694
207.877778,37.13798
208.194722,37.050874
208.603056,36.857306
208.97,36.818593
209.237778,36.89602
209.585833,36.779879
209.890556,36.886341
210.165,36.750844
210.539722,36.818593
210.84,36.731487
211.146111,36.673416
211.549444,36.789557
211.900833,36.770201
212.206944,36.750844
212.632222,36.537919
212.889722,36.779879
213.163333,36.65406
213.551111,36.770201
213.819444,36.644381
214.126389,36.595989
214.515556,36.837949
214.820556,37.021839
215.076944,37.147659
215.522778,37.476725
215.811667,37.583187
216.110833,37.74772
216.513333,37.767077
216.810833,37.728363
217.087778,37.786434
217.497778,37.999359
217.714722,38.270354
218.117222,38.444566
218.497778,38.502636
218.746389,38.734918
218.978889,38.647812
219.237778,38.647812
219.575278,38.444566
219.860278,38.338103
220.0825,38.473601
220.446389,38.376817
220.717778,38.531671
221.000556,38.463922
221.215833,38.250997
221.557778,38.35746
221.785833,38.386495
222.018333,38.376817
222.366667,38.425209
222.620556,38.347782
222.885278,38.250997
223.148611,38.347782
223.473889,38.260676
223.669167,38.35746
223.868611,38.405852
224.394722,38.260676
224.620833,38.425209
224.902778,38.405852
225.135278,38.231641
225.463611,38.35746
225.87,38.289711
226.081667,38.386495
226.506389,38.299389
227.670278,38.318746
227.870556,38.35746
228.098889,38.405852
228.415556,38.367138
228.763611,38.338103
229.088889,38.405852
229.506111,38.35746
229.734167,38.492958
229.94,38.280033
230.175833,38.454244
230.568333,38.367138
230.816389,38.405852
231.488611,38.425209
231.796944,38.405852
232.008056,38.454244
232.172778,38.376817
232.573333,38.492958
232.826667,38.425209
233.065,38.444566
233.683889,38.386495
233.95,38.531671
234.400556,38.54135
234.674167,38.483279
234.929167,38.41553
235.200278,38.473601
235.601667,39.044627
235.876667,39.15109
236.574722,39.364015
236.847222,39.489834
237.088889,39.722116
237.519722,39.847935
237.773889,39.722116
238.089722,39.567261
238.4375,39.45112
238.725278,39.39305
239.273611,39.131733
239.602222,39.180125
239.790833,39.170446
239.991389,39.093019
240.208333,39.034949
240.506389,38.947843
240.761944,38.822024
240.995,38.899451
241.221667,38.72524
241.625278,38.909129
241.884722,38.889773
242.278333,38.763953
242.663611,38.957521
242.875,38.744596
243.081389,38.841381
243.470556,38.792988
243.686944,39.063984
243.983056,39.257552
244.241944,39.247874
244.6425,39.664045
244.844722,39.45112
245.146111,39.247874
245.588056,39.083341
245.845556,39.189803
246.075556,39.122054
246.406111,39.15109
246.620833,39.02527
246.878889,39.131733
247.208056,39.044627
247.535278,38.957521
247.776944,39.122054
248.048611,39.083341
248.483056,39.02527
248.828889,39.093019
249.046111,38.928486
249.376667,38.976878
249.613611,38.9672
