time,pressure
0.0,158.868122
0.083333,158.432442
0.166667,156.231898
0.333333,153.289141
0.5,151.314864
0.666667,148.906749
0.833333,146.844092
1.166667,144.653199
1.333333,141.544421
1.666667,139.16595
2.092222,137.853935
2.166667,136.254477
2.333333,133.125864
2.5,129.955268
2.833333,127.557404
2.916667,127.335465
2.954444,127.235175
3.0,128.361426
3.083333,130.41618
3.166667,132.879447
3.25,134.932151
3.416667,138.366394
3.583333,141.001011
3.75,143.179388
3.916667,145.134283
4.166667,147.325206
4.416667,148.54501
4.438611,148.631866
4.5,147.174859
4.583333,145.19278
4.75,142.78987
4.916667,140.736127
5.166667,138.348703
5.5,136.371344
5.916667,134.420517
6.416667,132.401596
7.166667,130.296833
7.916667,128.27071
10.0,126.9393
12.083333,125.778351
14.166667,124.87397
14.75,124.422243
14.833333,124.428584
15.666667,123.920235
15.699167,123.355814
17.7825,123.019649
19.865833,122.338371
21.949167,121.632373
24.0325,120.953519
26.115833,120.345843
28.199167,119.809239
30.2825,119.322195
32.365833,118.873457
34.449167,118.459002
36.5325,118.074353
38.615833,117.680536
40.699167,117.30028
42.7825,116.978238
44.865833,116.675671
46.949167,116.388141
49.0325,116.135793
51.115833,115.890314
53.199167,115.617903
55.2825,115.353118
57.365833,115.12666
59.449167,114.902915
61.5325,114.666287
63.615833,114.455777
65.699167,114.308587
67.7825,114.191292
69.865833,114.008079
71.949167,113.701951
74.0325,113.226864
76.115833,112.613761
78.199167,112.083821
80.2825,111.705373
82.365833,111.526228
84.449167,111.626204
86.5325,111.792554
87.615833,111.825905
88.615833,111.793277
90.699167,111.496833
92.7825,110.470867
94.199167,108.486872
95.615833,106.427245
95.662222,106.30259
96.0325,104.486022
96.7825,102.449765
97.615833,100.416415
98.7825,98.837335
99.699167,99.095592
101.7825,100.901365
102.579167,102.555153
102.699167,103.135015
103.115833,105.290544
104.0325,107.254532
106.0325,109.208534
108.115833,109.943731
110.199167,110.314824
111.115833,110.351293
112.2825,110.30057
114.365833,109.920527
116.449167,109.153909
118.199167,107.127915
118.949167,105.035999
119.699167,102.968928
120.449167,100.964126
121.199167,98.945064
121.949167,96.954272
124.0325,95.267393
124.2825,95.252935
125.949167,97.272922
126.615833,99.396802
127.2825,101.526311
128.0325,103.505704
129.2825,105.529716
130.615833,107.513303
132.699167,108.506747
134.7825,109.058579
136.365833,109.192832
136.865833,109.180142
138.949167,108.82252
141.0325,108.027177
142.865833,106.088932
144.2825,104.118489
145.115833,102.014068
146.0325,99.991517
146.7825,98.04454
147.7825,96.060992
149.699167,94.85256
149.865833,94.865296
151.949167,96.627086
152.699167,98.652982
153.2825,100.758259
153.865833,102.775684
154.865833,104.752299
156.949167,106.720214
159.0325,107.417183
160.449167,107.582773
161.115833,107.544849
163.199167,106.968568
164.449167,104.929303
165.7825,102.915643
167.199167,100.930944
168.0325,98.971848
169.115833,96.999344
170.5325,94.991329
172.615833,94.098353
172.865833,94.086633
174.080278,95.675481
174.199167,96.212949
174.5325,98.175814
174.865833,100.139419
175.615833,102.196179
177.699167,103.860718
178.7825,105.955297
180.865833,106.965087
182.949167,107.284918
183.699167,107.310854
185.0325,107.218142
187.115833,106.736985
189.199167,105.755196
191.2825,104.392833
192.199167,102.442111
193.699167,100.384532
194.5325,98.274027
195.2825,96.285911
196.0325,94.080019
196.7825,91.948719
197.949167,90.379773
198.0675,90.511686
198.615833,92.807565
198.865833,92.74524
199.2825,92.654357
199.821111,93.121173
200.199167,95.16238
200.5325,97.128381
201.115833,99.236888
201.865833,101.287538
202.615833,103.332971
203.615833,105.311737
205.699167,106.725488
207.7825,107.411752
209.865833,107.66461
211.949167,107.420982
214.0325,106.798181
216.115833,106.06936
217.865833,105.318733
217.949167,105.31913
218.199167,105.301649
218.699167,105.223034
218.7825,105.232762
219.115833,104.935914
219.2825,104.955485
220.2825,104.715391
222.365833,104.236556
223.949167,104.015859
224.0325,104.016217
224.449167,103.854608
225.449167,103.755319
225.5325,103.757989
225.7825,103.590737
225.865833,103.590894
226.5325,103.452785
228.615833,102.672578
230.699167,100.901245
231.5325,98.946494
232.7825,96.917459
233.365833,94.643459
234.199167,92.523239
235.199167,90.981963
235.5325,91.235801
236.2825,90.907585
236.949167,90.015554
237.042778,90.153315
237.5325,92.865455
237.949167,94.838331
238.365833,97.241095
238.699167,99.265953
239.115833,101.268142
239.865833,103.227594
240.5325,104.172691
240.548889,104.580938
240.632222,104.774524
240.798889,104.747185
242.132222,106.759512
244.132222,108.703073
245.215556,109.479193
245.2225,109.483697
245.298889,112.063392
245.382222,114.873302
245.465556,117.015511
245.632222,120.44835
245.798889,122.747218
247.945278,129.845253
248.111944,126.667695
248.361944,124.419103
248.778611,122.308553
249.278611,120.364918
249.945278,118.1752
251.861944,116.168085
253.945278,114.581659
256.028611,113.565163
256.111944,113.55961
257.195278,113.676463
258.111944,112.420352
258.278611,112.323888
259.611944,113.179213
260.195278,112.16221
260.695278,111.665398
262.195278,112.285786
262.278611,112.28273
262.945278,109.904198
263.111944,109.929966
263.445278,109.884036
263.611944,110.185291
264.195278,112.082117
264.278611,112.270602
264.361944,112.265863
264.445278,112.267129
264.472222,112.267539
264.861944,109.627831
264.945278,108.649506
266.028611,110.502604
266.042222,110.534609
266.528611,108.166487
266.945278,108.81536
267.278611,109.452487
267.611944,106.704399
267.861944,107.736291
268.028611,107.526254
268.445278,108.180706
268.611944,108.978947
268.861944,110.152376
269.195278,107.614902
269.445278,107.96649
269.528611,107.829087
269.611944,107.851106
269.695278,107.840996
270.445278,109.38131
270.695278,106.981811
270.778611,106.979621
270.945278,107.59444
271.195278,107.470369
271.778611,108.988739
271.945278,109.082495
272.111944,107.006367
272.361944,107.629725
272.611944,107.381126
273.445278,109.275804
273.528611,109.476814
274.445278,107.767814
275.195278,108.929804
275.528611,107.001829
275.778611,107.530582
275.945278,107.481208
276.778611,108.98533
276.819722,109.028399
277.028611,107.077237
277.278611,107.516168
277.361944,107.316456
278.361944,108.940582
278.383333,108.948604
278.611944,106.232959
278.695278,106.2264
278.861944,106.825738
279.111944,106.618138
279.207778,106.62178
279.611944,108.199227
279.695278,108.23802
279.745278,108.261293
279.945278,105.539189
280.028611,105.501115
280.278611,106.304652
280.445278,106.217293
280.861944,107.665169
281.111944,108.377545
281.165,108.404602
281.445278,105.687148
281.528611,104.815337
282.195278,105.853964
282.611944,105.227795
282.861944,103.906472
283.278611,105.416217
283.475,105.378016
283.528611,105.08192
283.945278,103.286716
284.278611,104.348397
284.861944,103.037661
285.111944,102.487154
285.361944,102.569009
286.028611,101.433799
286.111944,101.437521
286.445278,101.024596
286.611944,100.769485
286.861944,101.274233
288.111944,99.179971
288.361944,99.209133
288.528611,99.166262
288.778611,98.424763
289.111944,98.454727
289.361944,98.196921
289.611944,98.373446
290.195278,97.927384
290.445278,97.951987
290.611944,97.74069
290.861944,96.860144
291.278611,96.985889
291.361944,96.981678
292.195278,98.507727
292.611944,98.472444
292.695278,98.475412
294.028611,97.448094
294.778611,98.735042
295.278611,100.826353
295.778611,102.535302
296.695278,102.117325
297.028611,102.153388
297.361944,101.704029
297.611944,101.3616
298.445278,103.92957
298.695278,104.586856
298.778611,104.38664
300.445278,105.923018
300.611944,106.114787
300.778611,105.459297
300.945278,105.711323
301.111944,105.68521
301.695278,106.553235
302.445278,106.396074
302.528611,106.426408
302.861944,106.709693
303.028611,106.69518
304.611944,107.495609
305.278611,107.532374
305.445278,107.08355
305.695278,107.162786
306.195278,107.095497
306.695278,107.464116
307.278611,108.046889
308.445278,107.184189
308.778611,107.697176
309.111944,108.036069
309.195278,107.773229
309.278611,107.949927
309.778611,106.183224
309.945278,106.496236
310.111944,106.321077
310.778611,107.263933
310.861944,107.263149
311.055833,107.218615
311.361944,105.880473
311.611944,106.258377
311.778611,106.255698
312.195278,107.314637
312.370278,107.283029
312.695278,104.573135
313.289722,105.450312
313.528611,106.533311
313.778611,107.013341
314.028611,104.046611
314.278611,105.247868
314.528611,104.795723
314.534722,104.795697
314.778611,106.157109
315.028611,106.793525
315.139722,106.789527
315.361944,104.075586
315.445278,103.365875
315.611944,104.081205
315.778611,104.025177
316.111944,104.641368
316.119444,104.643558
316.611944,102.521799
316.631667,102.456134
316.945278,104.21023
317.195278,103.615289
317.445278,102.616355
317.611944,102.033827
317.861944,102.315476
318.361944,100.901026
318.695278,101.219899
318.787778,101.040332
318.945278,100.48254
320.028611,98.493492
320.033333,98.489921
320.611944,96.281858
321.028611,94.69426
321.195278,94.891119
321.535556,94.493439
321.611944,94.107007
322.111944,91.410387
322.278611,93.261899
322.361944,93.044072
322.386944,92.978554
322.445278,93.721319
322.611944,95.382165
322.650556,95.659137
322.695278,97.355876
322.778611,100.513927
322.861944,101.563246
322.945278,104.037016
323.028611,106.1522
323.111944,108.543718
323.195278,111.076649
323.278611,113.060134
323.445278,116.145287
323.695278,117.662959
323.861944,114.124199
324.111944,111.55979
324.278611,109.424623
324.361944,108.624875
324.379722,108.45545
324.695278,110.052351
324.778611,110.048967
325.195278,110.492683
325.361944,110.474157
326.361944,111.090929
327.111944,110.810151
327.195278,111.017634
328.445278,110.192325
328.861944,109.538786
330.361944,110.863336
330.445278,110.860226
330.528611,110.865255
330.611944,110.886128
331.695278,110.419126
332.611944,110.441594
333.695278,110.671841
334.195278,110.047488
334.445278,110.094191
334.695278,110.086891
334.861944,110.068191
336.611944,110.950957
336.778611,110.094734
336.861944,109.462588
337.111944,109.548166
337.445278,109.202175
338.778611,111.118156
338.861944,111.109322
338.969722,111.076173
339.195278,108.878683
339.695278,108.405813
340.695278,110.260189
340.801944,110.254542
341.195278,107.781806
341.278611,107.820379
341.361944,108.12758
341.528611,107.890883
342.195278,109.000745
342.292222,108.984372
342.528611,106.843685
343.361944,108.134442
343.778611,109.319908
344.028611,106.414363
344.278611,107.22844
344.445278,106.84229
345.361944,109.060069
345.445278,109.044715
345.611944,106.427586
345.695278,105.669484
345.945278,106.648481
346.111944,106.330677
346.861944,108.316198
347.028611,105.425238
347.695278,106.399794
348.361944,108.247875
348.611944,105.574338
348.945278,106.251207
349.111944,106.043943
349.778611,107.52064
350.111944,105.351263
350.195278,104.992164
350.361944,105.485698
350.611944,105.41428
350.708889,105.440104
351.195278,107.3373
351.287778,107.320292
351.528611,104.383864
351.778611,105.29244
351.945278,105.16073
352.361944,106.446814
352.695278,107.389796
352.742778,107.422085
353.111944,104.261132
353.626667,104.943436
353.945278,106.174719
354.050556,105.848994
354.361944,103.13795
354.611944,104.17234
354.778611,104.08987
354.785556,104.086327
355.195278,105.976757
355.278611,105.985872
355.308611,105.989155
355.528611,103.933029
355.695278,102.87293
355.71,102.786496
355.945278,104.075593
356.111944,103.987559
356.278611,104.287272
356.460556,104.148089
356.945278,101.864044
357.195278,102.609821
358.528611,101.043652
359.028611,101.344246
360.111944,99.30922
360.195278,99.073791
360.445278,99.139958
360.541667,99.137057
361.361944,97.304101
361.623611,96.988585
362.195278,95.249563
362.361944,94.672033
362.695278,94.901404
363.695278,93.425129
363.778611,93.425781
363.877778,93.405803
363.945278,92.874084
364.028611,92.217396
364.111944,93.675635
364.195278,95.03403
364.445278,97.214139
364.611944,99.426667
364.861944,100.762064
364.945278,100.578549
365.528611,101.543797
365.695278,101.582202
366.028611,101.223178
366.361944,101.271662
366.445278,101.268206
366.528611,101.459103
366.695278,101.068122
367.611944,102.368834
368.528611,104.374323
369.695278,106.389567
371.778611,107.670554
373.861944,108.355364
375.445278,109.170281
375.5725,109.139021
375.778611,107.046502
375.945278,107.14847
376.195278,106.711158
377.195278,109.00914
377.336111,108.721379
377.445278,107.108118
377.861944,107.230828
378.028611,107.202528
378.111944,107.180212
378.611944,107.909712
379.111944,105.104306
379.195278,105.082554
379.445278,105.453638
379.611944,105.445236
379.626667,105.444174
380.028611,107.106471
380.195278,107.342457
380.278611,106.563566
380.361944,104.565297
380.445278,104.336327
380.611944,104.963935
380.861944,104.486215
381.528611,106.50679
381.778611,106.64784
381.784444,106.64964
382.028611,104.136557
382.195278,103.401442
382.695278,103.521801
383.195278,101.52527
383.278611,100.923583
383.2875,100.858478
383.945278,103.082671
384.069167,103.055426
385.195278,99.276981
385.861944,97.316767
385.945278,97.026054
386.195278,97.129878
386.287222,97.118099
386.812222,95.664881
386.861944,95.317579
387.111944,94.158838
387.195278,94.181593
387.219167,94.188133
387.361944,93.27675
387.611944,92.669777
387.778611,93.262362
388.278611,91.232035
388.445278,90.570735
388.528611,88.543186
388.624444,89.972144
388.695278,91.597733
388.861944,94.840372
388.945278,96.329117
389.028611,96.309738
389.111944,99.014508
389.278611,101.124895
389.528611,103.072047
389.695278,103.74373
389.778611,103.52326
389.783889,103.509021
389.861944,105.375727
389.945278,107.371321
390.111944,110.242643
390.195278,111.320305
390.223889,111.691534
390.528611,108.938724
391.028611,109.669367
392.195278,108.886828
394.278611,107.159282
395.611944,106.529007
396.278611,107.022745
396.361944,107.022678
396.528611,107.04187
396.611944,106.889397
398.445278,107.413179
399.445278,107.670244
400.528611,107.472463
402.611944,107.315759
403.861944,107.211981
404.695278,107.883762
404.815556,107.602967
405.028611,105.403589
405.278611,103.700832
405.945278,104.942768
406.062222,104.926689
406.278611,103.114119
406.361944,102.325016
406.611944,103.096219
407.361944,100.804344
407.445278,100.044162
407.611944,100.502778
408.028611,100.44049
408.111944,100.443385
408.142222,100.444437
408.361944,99.123931
408.611944,99.398453
409.111944,98.795567
409.361944,98.460333
409.445278,98.462263
410.111944,97.22753
410.278611,97.258061
410.695278,96.560558
410.861944,96.340543
411.028611,96.775226
411.611944,95.601789
411.861944,95.615684
411.962778,95.599493
412.195278,94.392675
412.278611,94.387889
412.445278,94.403064
412.778611,93.49453
412.945278,93.557519
413.695278,92.311918
414.111944,90.800542
414.361944,91.418355
415.035556,90.459709
415.111944,90.145267
415.528611,87.809334
415.778611,90.884329
416.028611,92.919868
416.111944,92.354158
416.123889,92.27274
416.445278,95.158598
416.528611,95.177476
416.531389,95.178134
416.861944,93.133773
417.028611,92.048185
417.111944,89.550154
417.128889,89.039858
417.361944,91.196321
417.528611,90.77951
417.695278,91.797581
418.278611,94.0607
418.778611,96.231033
419.278611,98.310207
420.778611,100.291453
421.778611,102.244334
423.861944,104.007987
425.945278,104.940951
427.361944,106.060841
427.468333,105.772958
427.778611,102.81621
427.861944,102.379793
428.432778,103.345397
428.695278,104.819477
428.778611,104.852873
428.825278,104.871573
429.028611,102.537497
429.195278,103.514438
429.361944,102.937397
429.4525,102.963436
429.945278,104.571734
430.278611,101.158922
430.361944,100.914698
430.528611,101.416799
430.695278,101.259056
430.787222,101.446645
431.111944,103.150254
431.195278,103.407323
431.445278,100.568927
431.695278,101.773135
431.861944,101.573607
431.951389,101.577266
432.111944,102.712216
432.445278,103.75249
432.695278,100.392838
432.945278,101.101577
433.195278,100.79199
433.205556,100.787536
433.528611,102.468259
433.611944,102.493024
433.778611,100.504301
433.861944,99.555066
434.111944,100.829897
434.195278,100.484259
434.302778,100.509313
434.611944,102.458304
434.695278,102.669861
434.792222,102.415121
434.945278,100.352288
435.028611,99.518854
435.278611,100.423475
435.361944,100.186897
435.446944,100.199561
435.945278,102.110296
436.111944,99.347961
436.361944,100.251256
436.528611,100.028272
436.861944,101.546324
436.971944,101.537762
437.028611,100.801043
437.278611,98.285657
437.528611,99.712625
437.611944,99.474568
437.731389,99.514847
437.861944,100.644509
437.945278,101.132529
438.195278,98.661257
438.278611,98.460191
438.445278,99.571868
438.611944,99.220162
438.615278,99.213189
438.861944,100.797493
438.945278,101.076156
438.995,101.242324
439.278611,98.309673
439.361944,97.668416
439.611944,98.579423
440.278611,96.694541
440.528611,98.168056
441.111944,96.189371
441.361944,96.881702
441.452222,96.87589
441.778611,95.24098
442.111944,95.348244
442.445278,94.096392
442.528611,94.090447
442.861944,94.137534
443.778611,91.846018
444.361944,90.188119
444.528611,90.439258
444.695278,90.335821
444.861944,90.895944
445.278611,89.908235
445.445278,87.962896
445.528611,87.348888
445.695278,90.356442
445.861944,92.414308
445.945278,92.847832
446.111944,91.415198
446.131111,91.270914
446.528611,94.608394
446.611944,94.315549
446.945278,92.521239
447.028611,92.1591
447.111944,89.879303
447.195278,88.764315
447.201111,88.685493
447.445278,91.002301
447.611944,90.711044
447.621944,90.706613
447.778611,91.922714
448.231389,93.653295
448.278611,93.910082
448.778611,95.905836
449.361944,98.130644
451.111944,100.070378
452.111944,102.030747
452.861944,102.891662
452.945278,102.879274
454.195278,103.71675
456.278611,104.586417
457.361944,105.720487
457.406111,105.736287
457.861944,102.223775
457.945278,101.97886
458.3725,102.548043
458.778611,104.058283
458.829444,104.076913
459.028611,102.115116
459.195278,102.798729
459.445278,102.617938
459.945278,103.687952
460.195278,101.55681
460.278611,100.215784
460.528611,100.693353
460.611944,100.685528
460.818611,101.161841
461.111944,102.783946
461.361944,99.947692
461.611944,100.827693
461.778611,100.628361
461.815,100.623335
462.278611,102.862583
462.377778,102.811928
462.528611,100.84026
462.695278,99.682467
462.861944,100.268645
463.028611,100.195701
463.361944,101.342537
463.398889,101.443169
463.695278,98.731544
463.861944,99.830278
464.028611,99.778291
464.149167,99.796299
464.361944,101.189421
464.528611,102.029223
464.6475,102.018215
465.028611,99.234441
465.528611,99.766966
465.695278,99.251267
465.945278,97.930889
466.361944,99.386784
467.028611,97.455358
467.111944,97.892725
467.278611,98.6223
467.945278,96.700462
468.111944,97.537376
468.778611,95.82928
469.111944,96.180723
469.528611,95.39548
469.695278,95.42391
470.195278,94.379448
470.361944,94.539345
470.558333,94.46883
470.695278,93.687382
472.361944,91.498428
472.861944,90.449863
473.278611,91.153091
473.754722,90.469008
473.945278,89.558551
474.528611,88.483666
474.945278,91.504926
475.028611,91.717399
475.945278,89.877821
476.111944,89.879834
476.131944,89.880129
476.195278,89.48963
476.361944,88.365426
476.905,90.815525
477.028611,91.670586
477.306944,92.884162
477.528611,94.165983
477.861944,96.170189
478.278611,97.694853
478.445278,97.256153
478.611944,97.938023
478.695278,97.609321
479.028611,98.468767
479.111944,98.258152
479.445278,99.066211
479.695278,97.585347
479.945278,98.210141
480.111944,98.20196
481.028611,100.49781
483.111944,102.237536
485.195278,104.010398
485.445278,104.452256
485.645,104.374456
486.195278,101.954068
486.361944,101.911542
486.611944,102.218777
487.278611,100.448742
487.695278,101.534521
488.028611,102.562082
488.126667,102.545151
488.278611,101.573738
488.528611,99.800285
488.958333,100.393506
489.278611,101.652805
489.468333,101.362693
489.778611,98.695405
490.028611,99.340403
490.195278,99.268881
490.361944,99.273011
490.548611,99.033561
490.778611,97.6282
490.886667,97.651734
491.361944,98.980894
491.861944,97.973594
492.028611,97.889299
