time,pressure
0.0,149.869522
0.033333,148.446799
0.066667,147.730598
0.1,147.082146
0.133333,146.598227
0.166667,146.1627
0.2,145.823956
0.233333,145.543283
0.266667,145.291645
0.3,145.040007
0.333333,144.788369
0.366667,144.614158
0.4,144.468982
0.433333,144.314128
0.466667,144.159273
0.5,143.975384
0.533333,143.897957
0.566667,143.791495
0.6,143.675354
0.633333,143.559213
0.666667,143.481786
0.7,143.414038
0.733333,143.307575
0.766667,143.239827
0.8,143.1624
0.833333,143.075294
0.866667,143.017224
0.9,142.959153
0.933333,142.881726
0.966667,142.823656
1.0,142.746229
1.033333,142.697837
1.066667,142.659123
1.1,142.610731
1.133333,142.56234
1.166667,142.494591
1.2,142.455877
1.233333,142.407485
1.266667,142.388129
1.3,142.349415
1.333333,142.32038
1.366667,142.26231
1.4,142.204239
1.433333,142.204239
1.466667,142.175204
1.5,142.117134
1.533333,142.07842
1.566667,142.059063
1.6,142.030028
1.633333,141.981636
1.666667,141.952601
1.7,141.933244
1.733333,141.904209
1.766667,141.875174
1.8,141.846139
1.833333,141.836461
1.866667,141.817104
1.9,141.797747
1.933333,141.749355
1.966667,141.729998
2.0,141.72032
2.033333,141.691285
2.066667,141.652571
2.1,141.652571
2.133333,141.633214
2.166667,141.604179
2.2,141.555787
2.233333,141.565466
2.266667,141.555787
2.3,141.526752
2.333333,141.497717
2.366667,141.517074
2.4,141.47836
2.433333,141.468682
2.466667,141.459003
2.5,141.449325
2.533333,141.429968
2.566667,141.42029
2.6,141.410611
2.633333,141.410611
2.666667,141.391255
2.7,141.36222
2.733333,141.352541
2.766667,141.342863
2.8,141.342863
2.833333,141.323506
2.866667,141.294471
2.9,141.294471
2.933333,141.284792
2.966667,141.284792
3.0,141.255757
3.033333,141.265436
3.066667,141.236401
3.1,141.236401
3.133333,141.217044
3.166667,141.197687
3.2,141.197687
3.233333,141.17833
3.266667,141.17833
3.3,141.158973
3.333333,141.158973
3.366667,141.158973
3.4,141.149295
3.433333,141.158973
3.466667,141.139617
3.5,141.129938
3.533333,141.129938
3.566667,141.110581
3.6,141.110581
3.633333,141.100903
3.666667,141.091225
3.7,141.091225
3.733333,141.052511
3.766667,141.052511
3.8,141.052511
3.833333,141.033154
3.866667,141.042833
3.9,141.023476
3.933333,141.004119
3.966667,141.013798
4.0,140.994441
4.033333,141.013798
4.066667,140.984762
4.1,140.965406
4.133333,140.965406
4.166667,140.975084
4.2,140.955727
4.233333,140.936371
4.266667,140.936371
4.3,140.936371
4.333333,140.946049
4.366667,140.917014
4.4,140.907335
4.433333,140.907335
4.466667,140.907335
4.5,140.897657
4.533333,140.887979
4.566667,140.907335
4.6,140.8783
4.633333,140.887979
4.666667,140.887979
4.7,140.887979
4.733333,140.868622
4.766667,140.8783
4.8,140.858943
4.833333,140.858943
4.866667,140.858943
4.9,140.849265
4.933333,140.829908
4.966667,140.829908
5.0,140.839587
5.033333,140.82023
5.066667,140.829908
5.1,140.810551
5.133333,140.82023
5.166667,140.810551
5.2,140.810551
5.233333,140.810551
5.266667,140.791195
5.3,140.781516
5.333333,140.791195
5.366667,140.742803
5.4,140.781516
5.433333,140.742803
5.466667,140.76216
5.5,140.733124
5.533333,140.713768
5.566667,140.713768
5.6,140.723446
5.633333,140.723446
5.883333,140.694411
6.133333,140.646019
6.383333,140.646019
6.633333,140.57827
6.883333,140.568592
7.133333,140.549235
7.383333,140.529878
7.633333,140.529878
7.883333,140.491165
8.133333,140.433094
8.383333,140.413738
8.633333,140.394381
8.883333,140.394381
9.133333,140.384702
9.383333,140.384702
9.633333,140.345989
9.883333,140.345989
10.133333,140.345989
10.383333,140.345989
10.633333,140.336311
10.883333,140.336311
11.133333,140.316954
11.383333,140.316954
11.633333,140.316954
11.883333,140.297597
12.133333,140.27824
12.383333,140.287919
12.633333,140.27824
12.883333,140.268562
13.133333,140.268562
13.383333,140.258883
13.633333,140.22017
13.883333,140.210491
14.133333,140.210491
14.383333,140.200813
14.633333,140.191135
14.883333,140.181456
15.133333,140.191135
15.383333,140.152421
15.633333,140.152421
15.883333,140.123386
16.133333,140.123386
16.383333,140.084672
16.633333,140.094351
16.883333,140.084672
17.133333,140.065316
17.383333,140.084672
17.633333,140.065316
17.883333,140.074994
18.133333,140.065316
18.383333,140.065316
18.633333,140.065316
18.883333,140.036281
19.133333,140.026602
19.383333,140.036281
19.633333,140.016924
19.883333,140.016924
20.133333,139.997567
20.383333,139.97821
20.633333,139.987889
20.883333,139.97821
21.133333,139.958853
21.383333,139.968532
21.633333,139.949175
21.883333,139.949175
22.133333,139.949175
22.383333,139.929818
22.633333,139.92014
22.883333,139.910461
23.133333,139.949175
23.383333,139.949175
23.633333,139.949175
23.883333,139.949175
24.133333,139.968532
24.383333,139.949175
24.633333,139.949175
24.883333,139.939497
25.133333,139.939497
25.383333,139.929818
25.633333,139.910461
25.883333,139.900783
26.133333,139.881426
26.383333,139.871748
26.633333,139.842713
26.883333,139.833034
27.133333,139.833034
27.383333,139.794321
27.633333,139.784642
27.883333,139.774964
28.133333,139.784642
28.383333,139.755607
28.633333,139.774964
28.883333,139.73625
29.133333,139.73625
29.383333,139.716894
29.633333,139.707215
29.883333,139.687859
30.133333,139.697537
30.383333,139.687859
30.633333,139.649145
30.883333,139.649145
31.133333,139.649145
31.383333,139.62011
31.633333,139.649145
31.883333,139.600753
32.133333,139.600753
32.383333,139.600753
32.633333,139.600753
32.883333,139.581396
33.133333,139.581396
33.383333,139.533004
33.633333,139.571718
33.883333,139.523326
34.133333,139.533004
34.383333,139.503969
34.633333,139.484612
34.883333,139.455577
35.133333,139.416864
35.383333,139.43622
35.633333,139.43622
35.883333,139.43622
36.133333,139.455577
36.383333,139.407185
36.633333,139.426542
36.883333,139.416864
37.133333,139.407185
37.383333,139.397507
37.633333,139.397507
37.883333,139.407185
38.133333,139.426542
38.383333,139.407185
38.633333,139.407185
38.883333,139.387829
39.133333,139.387829
39.383333,139.37815
39.633333,139.368472
39.883333,139.358793
40.133333,139.358793
40.383333,139.339437
40.633333,139.32008
40.883333,139.310401
41.133333,139.32008
41.383333,139.291045
41.633333,139.281366
41.883333,139.291045
42.133333,139.281366
42.383333,139.271688
42.633333,139.223296
42.883333,139.271688
43.133333,139.232974
43.383333,139.232974
43.633333,139.213618
43.883333,139.232974
44.133333,139.213618
44.383333,139.203939
44.633333,139.194261
44.883333,139.203939
45.133333,139.174904
45.383333,139.165226
45.633333,139.174904
45.883333,139.155547
46.133333,139.174904
46.383333,139.174904
46.633333,139.165226
46.883333,137.887679
47.133333,138.72002
47.383333,139.000693
47.633333,139.107155
47.883333,139.145869
48.133333,139.184582
48.383333,138.884552
48.633333,136.958553
48.883333,138.507095
49.133333,138.83616
49.383333,138.981336
49.633333,139.058763
49.883333,139.107155
50.133333,139.126512
50.383333,139.165226
50.633333,139.174904
50.883333,139.194261
51.133333,139.194261
51.383333,139.194261
51.633333,139.155547
51.883333,139.155547
52.133333,139.145869
52.383333,139.155547
52.633333,139.145869
52.883333,139.116834
53.133333,139.126512
53.383333,139.126512
53.633333,139.126512
53.883333,139.107155
54.133333,139.097477
54.383333,139.107155
54.633333,139.107155
54.883333,139.087799
55.133333,139.087799
55.383333,139.07812
55.633333,139.07812
55.883333,139.068442
56.133333,139.068442
56.383333,139.068442
56.633333,139.068442
56.883333,139.049085
57.133333,139.049085
57.383333,139.039407
57.633333,139.010371
57.883333,138.991015
58.133333,138.971658
58.383333,138.952301
58.633333,138.981336
58.883333,138.971658
59.133333,138.942623
59.383333,138.952301
59.633333,138.942623
59.883333,138.932944
60.133333,138.952301
60.383333,138.903909
60.633333,138.923266
60.883333,138.932944
61.133333,138.942623
61.383333,138.913588
61.633333,138.884552
61.883333,138.894231
62.133333,138.894231
62.383333,138.894231
62.633333,138.855517
62.883333,138.845839
63.133333,138.83616
63.383333,138.845839
63.633333,138.816804
63.883333,138.807125
64.133333,138.77809
64.383333,138.768412
64.633333,138.787769
64.883333,138.739377
65.133333,138.739377
65.383333,138.739377
65.633333,138.72002
65.883333,138.710341
66.133333,138.72002
66.383333,138.710341
66.633333,138.690985
66.883333,138.700663
67.133333,138.72002
67.383333,138.700663
67.633333,138.690985
67.883333,138.681306
68.133333,138.671628
68.383333,138.613558
68.633333,138.623236
68.883333,138.603879
69.133333,138.613558
69.383333,138.565166
69.633333,138.555487
69.883333,138.565166
70.133333,138.555487
70.383333,138.53613
70.633333,138.53613
70.883333,138.545809
71.133333,138.526452
71.383333,138.545809
71.633333,138.565166
71.883333,138.603879
72.133333,138.594201
72.383333,138.594201
72.633333,138.603879
72.883333,138.584522
73.133333,138.613558
73.383333,138.594201
73.633333,138.594201
73.883333,138.584522
74.133333,138.565166
74.383333,138.584522
74.633333,138.565166
74.883333,138.53613
75.133333,138.53613
75.383333,138.555487
75.633333,138.516774
75.883333,138.497417
76.133333,138.47806
76.383333,138.487739
76.633333,138.487739
76.883333,138.487739
77.133333,138.468382
77.383333,138.468382
77.633333,138.449025
77.883333,138.449025
78.133333,138.449025
78.383333,138.439347
78.633333,138.439347
78.883333,138.439347
79.133333,138.449025
79.383333,138.429668
79.633333,138.410311
79.883333,138.41999
80.133333,138.429668
80.383333,138.400633
80.633333,138.41999
80.883333,138.410311
81.133333,138.410311
81.383333,138.410311
81.633333,138.400633
81.883333,138.381276
82.133333,138.381276
82.383333,138.390955
82.633333,138.381276
82.883333,138.381276
83.133333,138.381276
83.383333,138.410311
83.633333,138.400633
83.883333,138.410311
84.133333,138.400633
84.383333,138.410311
84.633333,138.410311
84.883333,138.400633
85.133333,138.381276
85.383333,138.390955
85.633333,138.381276
85.883333,138.381276
86.133333,138.381276
86.383333,138.323206
86.633333,138.371598
86.883333,138.371598
87.133333,138.371598
87.383333,138.332884
87.633333,138.313528
87.883333,138.284492
88.133333,138.294171
88.383333,138.265136
88.633333,138.274814
88.883333,138.274814
89.133333,138.265136
89.383333,138.265136
89.633333,138.2361
89.883333,138.2361
90.133333,138.255457
90.383333,138.216744
90.633333,138.255457
90.883333,138.207065
91.133333,138.216744
91.383333,138.197387
91.633333,138.197387
91.883333,138.207065
92.133333,138.158673
92.383333,138.168352
92.633333,138.158673
92.883333,138.139317
93.133333,138.148995
93.383333,138.129638
93.633333,138.148995
93.883333,138.129638
94.133333,138.139317
94.383333,138.139317
94.633333,138.129638
94.883333,138.129638
95.133333,138.158673
95.383333,138.158673
95.633333,138.129638
95.883333,138.168352
96.133333,138.158673
96.383333,138.158673
96.633333,138.148995
96.883333,138.129638
97.133333,138.139317
97.383333,138.148995
97.633333,138.139317
97.883333,138.129638
98.133333,138.139317
98.383333,138.129638
98.633333,138.110281
98.883333,138.100603
99.133333,138.090925
99.383333,138.090925
99.633333,138.081246
99.883333,138.071568
100.133333,138.042533
100.383333,138.052211
100.633333,138.052211
100.883333,138.042533
101.133333,138.032854
101.383333,138.052211
101.633333,138.032854
101.883333,138.071568
102.133333,138.032854
102.383333,138.032854
102.633333,138.032854
102.883333,138.042533
103.133333,138.013498
103.383333,138.023176
103.633333,138.013498
103.883333,138.013498
104.133333,137.984462
104.383333,137.974784
104.633333,137.984462
104.883333,137.974784
105.133333,137.955427
105.383333,137.945749
105.633333,137.965106
105.883333,137.965106
106.133333,137.93607
106.383333,137.965106
106.633333,137.974784
106.883333,137.955427
107.133333,137.974784
107.383333,137.974784
107.633333,137.994141
107.883333,137.994141
108.133333,138.003819
108.383333,138.023176
108.633333,138.013498
108.883333,137.994141
109.133333,137.965106
109.383333,137.974784
109.633333,137.994141
109.883333,137.955427
110.133333,137.955427
110.383333,137.974784
110.633333,137.965106
110.883333,137.955427
111.133333,137.93607
111.383333,137.93607
111.633333,137.907035
111.883333,137.907035
112.133333,137.897357
112.383333,137.868322
112.633333,137.878
112.883333,137.839287
113.133333,137.829608
113.383333,137.848965
113.633333,137.829608
113.883333,137.800573
114.133333,137.790895
114.383333,137.781216
114.633333,137.810251
114.883333,137.810251
115.133333,137.81993
115.383333,137.800573
115.633333,137.800573
115.883333,137.790895
116.133333,137.781216
116.383333,137.781216
116.633333,137.781216
116.883333,137.752181
117.133333,137.723146
117.383333,137.723146
117.633333,137.703789
117.883333,137.703789
118.133333,137.703789
118.383333,137.723146
118.633333,137.723146
118.883333,137.723146
119.133333,137.723146
119.383333,137.771538
119.633333,137.732824
119.883333,137.752181
120.133333,137.752181
120.383333,137.732824
120.633333,137.723146
120.883333,137.752181
121.133333,137.723146
121.383333,137.732824
121.633333,137.723146
121.883333,137.723146
122.133333,137.732824
122.383333,137.713468
122.633333,137.723146
122.883333,137.703789
123.133333,137.694111
123.383333,137.684432
123.633333,137.684432
123.883333,137.674754
124.133333,137.665076
124.383333,137.665076
124.633333,137.63604
124.883333,137.645719
125.133333,137.645719
125.383333,137.645719
125.633333,137.63604
125.883333,137.684432
126.133333,137.645719
126.383333,137.645719
126.633333,137.63604
126.883333,137.63604
127.133333,137.626362
127.383333,137.616684
127.633333,137.616684
127.883333,137.607005
128.133333,137.616684
128.383333,137.616684
128.633333,137.626362
128.883333,137.597327
129.133333,137.607005
129.383333,137.616684
129.633333,137.607005
129.883333,137.597327
130.133333,137.558613
130.383333,137.57797
130.633333,137.597327
130.883333,137.616684
131.133333,137.616684
131.383333,137.616684
131.633333,137.607005
131.883333,137.607005
132.133333,137.607005
132.383333,137.57797
132.633333,137.57797
132.883333,137.568292
133.133333,137.587649
133.383333,137.597327
133.633333,137.568292
133.883333,137.57797
134.133333,137.539257
134.383333,137.548935
134.633333,137.500543
134.883333,137.529578
135.133333,137.500543
135.383333,137.481186
135.633333,137.471508
135.883333,137.471508
136.133333,137.481186
136.383333,137.432794
136.633333,137.452151
136.883333,137.452151
137.133333,137.432794
137.383333,137.413438
137.633333,137.403759
137.883333,137.394081
138.133333,137.413438
138.383333,137.403759
138.633333,137.403759
138.883333,137.413438
139.133333,137.384402
139.383333,137.394081
139.633333,137.384402
139.883333,137.374724
140.133333,137.365046
140.383333,137.365046
140.633333,137.374724
140.883333,137.355367
141.133333,137.365046
141.383333,137.316654
141.633333,137.316654
141.883333,137.287619
142.133333,137.297297
142.383333,137.268262
142.633333,137.268262
142.883333,137.287619
143.133333,137.27794
143.383333,137.306975
143.633333,137.345689
143.883333,137.326332
144.133333,137.345689
144.383333,137.365046
144.633333,137.365046
144.883333,137.394081
145.133333,137.374724
145.383333,137.355367
145.633333,137.355367
145.883333,137.326332
146.133333,137.345689
146.383333,137.316654
146.633333,137.287619
146.883333,137.297297
147.133333,137.297297
147.383333,137.27794
147.633333,137.258583
147.883333,137.239227
148.133333,137.268262
148.383333,137.258583
148.633333,137.239227
148.883333,137.21987
149.133333,137.229548
149.383333,137.229548
149.633333,137.210191
149.883333,137.229548
150.133333,137.258583
150.383333,137.21987
150.633333,137.210191
150.883333,137.229548
151.133333,137.200513
151.383333,137.200513
151.633333,137.200513
151.883333,137.190835
152.133333,137.181156
152.383333,137.171478
152.633333,137.1618
152.883333,137.1618
153.133333,137.142443
153.383333,137.103729
153.633333,137.094051
153.883333,137.084372
154.133333,137.074694
154.383333,137.074694
154.633333,137.084372
154.883333,137.084372
155.133333,137.074694
155.383333,137.074694
155.633333,137.103729
155.883333,137.123086
156.133333,137.123086
156.383333,137.103729
156.633333,137.123086
156.883333,137.103729
157.133333,137.132764
157.383333,137.132764
157.633333,137.113408
157.883333,137.113408
158.133333,137.103729
158.383333,137.103729
158.633333,137.113408
158.883333,137.113408
159.133333,137.084372
159.383333,137.055337
159.633333,137.055337
159.883333,137.055337
160.133333,137.03598
160.383333,137.045659
160.633333,137.03598
160.883333,137.006945
161.133333,137.016624
161.383333,137.045659
161.633333,137.045659
161.883333,137.045659
162.133333,137.006945
162.383333,137.03598
162.633333,137.055337
162.883333,137.016624
163.133333,137.045659
163.383333,137.026302
163.633333,136.997267
163.883333,137.006945
164.133333,137.006945
164.383333,136.987589
164.633333,136.97791
164.883333,136.987589
165.133333,136.948875
165.383333,136.948875
165.633333,136.968232
165.883333,136.939197
166.133333,136.929518
166.383333,136.948875
166.633333,136.948875
166.883333,136.939197
167.133333,136.97791
167.383333,136.997267
167.633333,136.97791
167.883333,136.97791
168.133333,136.997267
168.383333,136.987589
168.633333,136.97791
168.883333,136.987589
169.133333,136.968232
169.383333,136.97791
169.633333,136.968232
169.883333,136.948875
170.133333,136.948875
170.383333,136.948875
170.633333,136.948875
170.883333,136.91984
171.133333,136.91984
171.383333,136.910161
171.633333,136.91984
171.883333,136.890805
172.133333,136.900483
172.383333,136.890805
172.633333,136.890805
172.883333,136.900483
173.133333,136.881126
173.383333,136.871448
173.633333,136.871448
173.883333,136.890805
174.133333,136.890805
174.383333,136.86177
174.633333,136.881126
174.883333,136.86177
175.133333,136.86177
175.383333,136.842413
175.633333,136.823056
175.883333,136.86177
176.133333,136.86177
176.383333,136.842413
176.633333,136.86177
176.883333,136.842413
177.133333,136.86177
177.383333,136.823056
177.633333,136.813378
177.883333,136.832734
178.133333,136.784342
178.383333,136.774664
178.633333,136.784342
178.883333,136.774664
179.133333,136.803699
179.383333,136.803699
179.633333,136.823056
179.883333,136.794021
180.133333,136.803699
180.383333,136.823056
180.633333,136.803699
180.883333,136.813378
181.133333,136.803699
181.383333,136.803699
181.633333,136.764986
181.883333,136.764986
182.133333,136.774664
182.383333,136.73595
182.633333,136.73595
182.883333,136.73595
183.133333,136.73595
183.383333,136.726272
183.633333,136.716594
183.883333,136.697237
184.133333,136.697237
184.383333,136.67788
184.633333,136.687559
184.883333,136.67788
185.133333,136.639167
185.383333,136.639167
185.633333,136.639167
185.883333,136.648845
186.133333,136.639167
186.383333,136.648845
186.633333,136.648845
186.883333,136.648845
187.133333,136.639167
187.383333,136.629488
187.633333,136.629488
187.883333,136.61981
188.133333,136.61981
188.383333,136.61981
188.633333,136.610131
188.883333,136.581096
189.133333,136.610131
189.383333,136.590775
189.633333,136.600453
189.883333,136.581096
190.133333,136.600453
190.383333,136.600453
190.633333,136.610131
190.883333,136.610131
191.133333,136.629488
191.383333,136.639167
191.633333,136.648845
191.883333,136.658523
192.133333,136.648845
192.383333,136.639167
192.633333,136.639167
192.883333,136.639167
193.133333,136.639167
193.383333,136.629488
193.633333,136.639167
193.883333,136.61981
194.133333,136.610131
194.383333,136.61981
194.633333,136.610131
194.883333,136.600453
195.133333,136.600453
195.383333,136.610131
195.633333,136.610131
195.883333,136.610131
196.133333,136.600453
196.383333,136.571418
196.633333,136.581096
196.883333,136.581096
197.133333,136.571418
197.383333,136.571418
197.633333,136.561739
197.883333,136.542383
198.133333,136.571418
198.383333,136.561739
198.633333,136.532704
198.883333,136.542383
199.133333,136.542383
199.383333,136.513348
199.633333,136.532704
199.883333,136.523026
200.133333,136.532704
200.383333,136.542383
200.633333,136.542383
200.883333,136.513348
201.133333,136.542383
201.383333,136.532704
201.633333,136.484312
201.883333,136.493991
202.133333,136.493991
202.383333,136.484312
202.633333,136.493991
202.883333,136.503669
