time,pressure
0.0,72.818543
0.25,72.818543
0.5,72.828221
0.75,72.858224
1.0,72.848546
1.064167,72.838867
1.064444,72.838867
1.064722,72.838867
1.065,72.838867
1.065278,72.838867
1.065556,72.838867
1.065833,72.838867
1.066111,72.838867
1.066389,72.838867
1.066667,72.838867
1.066944,72.838867
1.067222,72.838867
1.100556,72.138152
1.133889,71.66875
1.167222,71.298068
1.200556,70.998038
1.233889,70.748336
1.267222,70.498633
1.300556,70.298291
1.333889,70.078591
1.367222,69.898573
1.400556,69.708877
1.433889,69.56854
1.467222,69.43885
1.500556,69.338195
1.533889,69.248186
1.567222,69.148498
1.600556,69.058489
1.633889,68.958802
1.667222,68.868793
1.700556,68.778784
1.733889,68.678129
1.767222,68.58812
1.800556,68.528114
1.833889,68.468108
1.867222,68.398423
1.900556,68.348096
1.933889,68.28809
1.967222,68.258087
2.000556,68.208727
2.033889,68.168078
2.067222,68.128396
2.100556,68.108072
2.133889,68.078069
2.166944,68.048066
2.200278,68.018063
2.233611,67.978381
2.266944,67.968703
2.300278,67.9387
2.333611,67.908697
2.366944,67.878694
2.400278,67.858369
2.433611,67.838045
2.466944,67.818688
2.500278,67.808042
2.533611,67.788685
2.566944,67.838045
2.600278,68.028709
2.633611,68.348096
2.666944,68.618123
2.700278,68.848468
2.733611,69.008162
2.766944,69.18818
2.800278,69.308192
2.833611,69.408847
2.866944,69.508534
2.900278,69.598543
2.933611,69.658549
2.966944,69.718555
3.000278,69.78824
3.033611,69.838567
3.066944,69.858892
3.100278,69.958579
3.133611,69.958579
3.166944,69.958579
3.200278,70.03891
3.233611,70.048588
3.266944,70.058267
3.300278,70.08827
3.333611,70.108594
3.366944,70.138597
3.400278,70.1686
3.433611,70.198603
3.466944,70.228606
3.500278,70.278934
3.533611,70.288612
3.566944,70.318615
3.600278,70.358297
3.633611,70.378621
3.666944,70.398946
3.700278,70.428949
3.733611,70.438627
3.766944,70.458952
3.800278,70.478309
3.833611,70.488955
3.866944,70.508312
3.900278,70.518958
3.933611,70.518958
3.966944,70.528636
4.000278,70.538315
4.033611,70.538315
4.066944,70.558639
4.100278,70.558639
4.133611,70.568318
4.166944,70.598321
4.200278,70.588642
4.233611,70.578964
4.266944,70.588642
4.300278,70.578964
4.333611,70.578964
4.366944,70.568318
4.400278,70.568318
4.433611,70.568318
4.466944,70.568318
4.500278,70.568318
4.533611,70.568318
4.566944,70.568318
4.600278,70.568318
4.633611,70.558639
4.666944,70.568318
4.700278,70.558639
4.733611,70.558639
4.766944,70.548961
4.800278,70.548961
4.833611,70.548961
4.866944,70.538315
4.900278,70.538315
4.933611,70.538315
4.966944,70.538315
5.000278,70.538315
5.033611,70.538315
5.066944,70.538315
5.100278,70.528636
5.133611,70.518958
5.166944,70.518958
5.200278,70.508312
5.233611,70.508312
5.266944,70.498633
5.300278,70.488955
5.333611,70.488955
5.366944,70.488955
5.400278,70.488955
5.433611,70.478309
5.466944,70.478309
5.500278,70.46863
5.533611,70.46863
5.566944,70.46863
5.600278,70.46863
5.633611,70.458952
5.666944,70.458952
5.700278,70.458952
5.733611,70.448306
5.766944,70.448306
5.800278,70.438627
5.833611,70.438627
5.866944,70.448306
5.900278,70.438627
5.933611,70.438627
5.966944,70.438627
6.000278,70.428949
6.033611,70.438627
6.066944,70.438627
6.100278,70.428949
6.133611,70.428949
6.166944,70.428949
6.200278,70.428949
6.233611,70.428949
6.266944,70.428949
6.300278,70.428949
6.333611,70.458952
6.366944,70.418303
6.400278,70.418303
6.433611,70.418303
6.466944,70.418303
6.500278,70.418303
6.533611,70.418303
6.566944,70.408624
6.600278,70.408624
6.633611,70.408624
6.666944,70.408624
6.700278,70.408624
6.733611,70.398946
6.766944,70.398946
6.800278,70.398946
6.833611,70.398946
6.866944,70.408624
6.900278,70.398946
6.933611,70.408624
6.966944,70.408624
7.000278,70.398946
7.033611,70.398946
7.066944,70.398946
7.100278,70.3883
7.133611,70.3883
7.166944,70.398946
7.200278,70.398946
7.233611,70.398946
7.266944,70.408624
7.300278,70.398946
7.333611,70.398946
7.366944,70.408624
7.400278,70.398946
7.433611,70.3883
7.466944,70.398946
7.500278,70.398946
7.533611,70.408624
7.566944,70.398946
7.600278,70.408624
7.633611,70.418303
7.666944,70.418303
7.700278,70.418303
7.733611,70.428949
7.766944,70.428949
7.800278,70.428949
7.833611,70.418303
7.866944,70.418303
7.900278,70.418303
7.933611,70.418303
7.966944,70.418303
8.000278,70.418303
8.033611,70.408624
8.066944,70.408624
8.100278,70.408624
8.133611,70.418303
8.166944,70.408624
8.200278,70.408624
8.233611,70.408624
8.266944,70.458952
8.300278,70.418303
8.333611,70.408624
8.366944,70.408624
8.400278,70.408624
8.433611,70.408624
8.466944,70.408624
8.500278,70.408624
8.533611,70.408624
8.566944,70.408624
8.600278,70.408624
8.633611,70.408624
8.666944,70.408624
8.700278,70.408624
8.733611,70.408624
8.766944,70.408624
8.800278,70.408624
8.833611,70.398946
8.866944,70.408624
8.900278,70.398946
8.933611,70.408624
8.966944,70.408624
9.000278,70.398946
9.033611,70.398946
9.066944,70.398946
9.100278,70.398946
9.133611,70.398946
9.166944,70.398946
9.200278,70.408624
9.233333,70.398946
9.266667,70.408624
9.3,70.408624
9.333333,70.418303
9.366667,70.408624
9.4,70.398946
9.433333,70.408624
9.466667,70.398946
9.5,70.398946
9.533333,70.408624
9.566667,70.398946
9.6,70.398946
9.633333,70.408624
9.666667,70.408624
9.7,70.418303
9.733333,70.418303
9.766667,70.418303
9.8,70.418303
9.833333,70.408624
9.866667,70.458952
9.9,70.408624
9.933333,70.458952
9.966667,70.418303
10.0,70.418303
10.033333,70.418303
10.066667,70.418303
10.1,70.418303
10.133333,70.418303
10.166667,70.418303
10.2,70.418303
10.233333,70.428949
10.266667,70.428949
10.3,70.428949
10.333333,70.428949
10.366667,70.438627
10.4,70.428949
10.433333,70.428949
10.466667,70.428949
10.5,70.428949
10.533333,70.428949
10.566667,70.428949
10.6,70.418303
10.633333,70.428949
10.666667,70.418303
10.7,70.418303
10.733333,70.418303
10.766667,70.428949
10.8,70.418303
10.833333,70.428949
10.866667,70.428949
10.9,70.428949
10.933333,70.428949
10.966667,70.418303
11.0,70.428949
11.033333,70.428949
11.066667,70.418303
11.1,70.428949
11.133333,70.418303
11.166667,70.418303
11.2,70.418303
11.233333,70.458952
11.266667,70.428949
11.3,70.418303
11.333333,70.428949
11.366667,70.428949
11.4,70.428949
11.433333,70.428949
11.466667,70.428949
11.5,70.418303
11.533333,70.418303
11.566667,70.418303
11.6,70.418303
11.633333,70.418303
11.666667,70.418303
11.7,70.418303
11.733333,70.418303
11.766667,70.418303
11.8,70.418303
11.833333,70.418303
11.866667,70.418303
11.9,70.418303
11.933333,70.428949
11.966667,70.418303
12.0,70.418303
12.033333,70.418303
12.066667,70.418303
12.1,70.418303
12.133333,70.418303
12.166667,70.418303
12.2,70.418303
12.233333,70.418303
12.266667,70.408624
12.3,70.408624
12.333333,70.408624
12.366667,70.408624
12.4,70.418303
12.433333,70.418303
12.466667,70.418303
12.5,70.418303
12.533333,70.408624
12.566667,70.408624
12.6,70.408624
12.633333,70.408624
12.666667,70.418303
12.7,70.418303
12.733333,70.408624
12.766667,70.408624
12.8,70.408624
12.833333,70.408624
12.866667,70.408624
12.9,70.408624
12.933333,70.358297
12.966667,70.358297
13.0,70.458952
13.033333,70.458952
13.066667,70.418303
13.1,70.398946
13.133333,70.408624
13.166667,70.408624
13.2,70.398946
13.233333,70.408624
13.266667,70.398946
13.3,70.408624
13.333333,70.398946
13.366667,70.398946
13.4,70.398946
13.433333,70.398946
13.466667,70.398946
13.5,70.408624
13.533333,70.408624
13.566667,70.408624
13.6,70.398946
13.633333,70.408624
13.666667,70.398946
13.7,70.398946
13.733333,70.398946
13.766667,70.398946
13.8,70.398946
13.833333,70.408624
13.866667,70.408624
13.9,70.408624
13.933333,70.408624
13.966667,70.408624
14.0,70.398946
14.033333,70.408624
14.066667,70.408624
14.1,70.408624
14.133333,70.408624
14.166667,70.408624
14.2,70.418303
14.233333,70.408624
14.266667,70.418303
14.3,70.418303
14.333333,70.418303
14.366667,70.418303
14.4,70.418303
14.433333,70.418303
14.466667,70.428949
14.5,70.418303
14.533333,70.458952
14.566667,70.418303
14.6,70.428949
14.633333,70.418303
14.666667,70.418303
14.7,70.418303
14.733333,70.418303
14.766667,70.408624
14.8,70.418303
14.833333,70.418303
14.866667,70.408624
14.9,70.418303
14.933333,70.418303
14.966667,70.418303
15.0,70.418303
15.033333,70.418303
15.066667,70.428949
15.1,70.418303
15.133333,70.428949
15.166667,70.418303
15.2,70.418303
15.233333,70.418303
15.266667,70.428949
15.3,70.428949
15.333333,70.438627
15.366667,70.438627
15.4,70.438627
15.433333,70.438627
15.466667,70.438627
15.5,70.448306
15.533333,70.438627
15.566667,70.448306
15.6,70.438627
15.633333,70.448306
15.666667,70.448306
15.7,70.458952
15.733333,70.448306
15.766667,70.448306
15.8,70.448306
15.833333,70.448306
15.866667,70.448306
15.9,70.448306
15.933333,70.448306
15.966667,70.448306
16.0,70.448306
16.033333,70.448306
16.066667,70.448306
16.1,70.448306
16.133333,70.448306
16.166667,70.448306
16.2,70.458952
16.233333,70.458952
16.266667,70.458952
16.3,70.448306
16.333333,69.428204
16.366667,69.618868
16.4,69.828889
16.433056,69.958579
16.466389,70.138597
16.499722,70.178279
16.533056,70.158922
16.566389,70.08827
16.599722,69.988582
16.633056,69.988582
16.666389,69.998261
16.699722,69.958579
16.733056,69.998261
16.766389,69.978904
16.799722,69.958579
16.833056,69.968258
16.866389,69.988582
16.899722,70.018585
16.933056,69.968258
16.966389,69.958579
16.999722,69.988582
17.033056,69.998261
17.066389,70.008907
17.099722,70.018585
17.133056,70.028264
17.166389,70.03891
17.199722,70.058267
17.233056,70.078591
17.266389,70.058267
17.299722,70.068913
17.333056,70.078591
17.366389,70.098916
17.399722,70.108594
17.433056,70.08827
17.466389,70.118273
17.499722,70.1686
17.533056,70.178279
17.566389,70.138597
17.599722,70.158922
17.633056,70.128919
17.666389,70.118273
17.699722,70.098916
17.733056,70.138597
17.766389,70.108594
17.799722,70.148276
17.833056,70.128919
17.866389,70.128919
17.899722,70.03891
17.933056,69.958579
17.966389,69.958579
17.999722,69.988582
18.033056,69.958579
18.066389,70.058267
18.099722,70.118273
18.133056,70.138597
18.166389,70.148276
18.199722,70.158922
18.233056,70.178279
18.266389,70.238285
18.299722,70.288612
18.333056,70.318615
18.366389,70.358297
18.399722,70.378621
18.433056,70.3883
18.466389,70.398946
18.499722,70.418303
18.533056,70.418303
18.566389,70.438627
18.599722,70.438627
18.633056,70.448306
18.666389,70.448306
18.699722,70.458952
18.733056,70.458952
18.766389,70.458952
18.799722,70.458952
18.833056,69.818243
18.866389,69.508534
18.899722,69.538537
18.933056,69.798886
18.966389,69.968258
18.999722,70.098916
19.033056,70.148276
19.066389,70.288612
19.099722,70.378621
19.133056,70.418303
19.166389,70.378621
19.199722,70.308937
19.233056,70.238285
19.266389,70.1686
19.299722,70.1686
19.333056,70.1686
19.366389,70.178279
19.399722,70.178279
19.433056,70.198603
19.466389,70.228606
19.499722,70.268288
19.533056,70.258609
19.566389,70.278934
19.599722,70.298291
19.633056,70.308937
19.666389,70.298291
19.699722,70.288612
19.733056,70.258609
19.766389,70.288612
19.799722,70.318615
19.833056,70.33894
19.866389,70.358297
19.899722,70.378621
19.933056,70.278934
19.966389,70.318615
19.999722,70.33894
20.033056,70.328294
20.066389,70.318615
20.099722,70.298291
20.133056,70.258609
20.166389,70.218928
20.199722,70.158922
20.233056,70.128919
20.266389,70.108594
20.299722,70.098916
20.333056,70.138597
20.366389,70.158922
20.399722,70.178279
20.433056,70.178279
20.466389,70.1686
20.499722,70.148276
20.533056,70.148276
20.566389,70.148276
20.599722,70.118273
20.633056,70.118273
20.666389,70.118273
20.699722,70.1686
20.733056,70.198603
20.766389,70.238285
20.799722,70.288612
20.833056,70.328294
20.866389,70.348618
20.899722,70.378621
20.933056,70.378621
20.966389,70.3883
20.999722,70.358297
21.033056,70.408624
21.066389,70.408624
21.099722,70.418303
21.133056,70.358297
21.166389,70.33894
21.199722,70.278934
21.233056,70.258609
21.266667,70.238285
21.3,70.188925
21.333333,70.208282
21.366667,70.228606
21.4,70.278934
21.433333,70.1686
21.466667,70.178279
21.5,70.228606
21.533333,70.278934
21.566667,70.318615
21.6,69.908252
21.633333,69.598543
21.666667,69.528859
21.7,69.728234
21.733333,69.978904
21.766667,70.178279
21.8,70.278934
21.833333,70.358297
21.866667,70.298291
21.9,70.188925
21.933333,70.108594
21.966667,70.078591
22.0,70.03891
22.033333,70.048588
22.066667,70.138597
22.1,70.198603
22.133333,70.228606
22.166667,70.278934
22.2,70.308937
22.233333,70.328294
22.266667,70.348618
22.3,70.358297
22.333333,70.368943
22.366667,70.378621
22.4,70.378621
22.433333,70.3883
22.466667,70.3883
22.5,70.3883
22.533333,70.398946
22.566667,70.3883
22.6,70.368943
22.633333,70.318615
22.666667,70.318615
22.7,70.278934
22.733333,70.258609
22.766667,70.208282
22.8,70.178279
22.833333,70.158922
22.866667,70.158922
22.9,70.158922
22.933333,70.158922
22.966667,70.158922
23.0,70.148276
23.033333,70.118273
23.066667,69.56854
23.1,69.18818
23.133333,69.068168
23.166667,69.398201
23.2,69.628546
23.233333,69.818243
23.266667,69.978904
23.3,70.03891
23.333333,70.08827
23.366667,70.258609
23.4,70.33894
23.433333,70.308937
23.466667,70.218928
23.5,70.178279
23.533333,70.118273
23.566667,70.08827
23.6,70.108594
23.633333,70.098916
23.666667,70.03891
23.7,70.048588
23.733333,70.068913
23.766667,70.068913
23.8,70.048588
23.833333,69.998261
23.866667,69.998261
23.9,70.018585
23.933333,70.018585
23.966667,70.03891
24.0,70.058267
24.033333,70.058267
24.066667,70.08827
24.1,70.118273
24.133333,70.118273
24.166667,70.098916
24.2,70.108594
24.233333,70.128919
24.266667,70.158922
24.3,70.138597
24.333333,70.178279
24.366667,70.098916
24.4,70.138597
24.433333,70.188925
24.466667,70.078591
24.5,70.028264
24.533333,70.058267
24.566667,70.068913
24.6,70.098916
24.633333,70.068913
24.666667,70.048588
24.7,70.018585
24.733333,70.028264
24.766667,70.028264
24.8,70.018585
24.833333,70.018585
24.866667,70.008907
24.9,69.958579
24.933333,70.078591
24.966667,70.018585
25.0,70.018585
25.033333,70.008907
25.066667,70.058267
25.1,70.138597
25.133333,70.208282
25.166667,70.248931
25.2,70.258609
25.233333,70.238285
25.266667,70.218928
25.3,70.228606
25.333333,70.218928
25.366667,70.188925
25.4,70.178279
25.433333,70.198603
25.466667,70.218928
25.5,70.268288
25.533333,70.308937
25.566667,70.33894
25.6,70.368943
25.633333,70.378621
25.666667,70.3883
25.7,70.398946
25.733333,70.398946
25.766667,70.408624
25.8,70.408624
25.833333,70.408624
25.866667,70.428949
25.9,70.428949
25.933333,69.748558
25.966667,69.808564
26.0,69.688552
26.033333,69.678874
26.066667,69.778561
26.1,69.918898
26.133333,70.03891
26.166667,70.058267
26.2,70.028264
26.233333,70.058267
26.266667,70.108594
26.3,70.138597
26.333333,70.138597
26.366667,70.098916
26.4,70.048588
26.433333,69.968258
26.466667,70.078591
26.5,70.148276
26.533333,70.148276
26.566667,70.178279
26.6,70.148276
26.633333,70.108594
26.666667,70.118273
26.7,70.098916
26.733333,70.03891
26.766667,70.058267
26.8,70.03891
26.833333,70.048588
26.866667,70.058267
26.899722,70.108594
26.933056,70.118273
26.966389,70.098916
26.999722,70.068913
27.033056,70.058267
27.066389,70.068913
27.099722,70.048588
27.133056,70.03891
27.166389,70.028264
27.199722,70.03891
27.233056,70.048588
27.266389,70.018585
27.299722,69.978904
27.333056,69.958579
27.366389,69.988582
27.399722,70.008907
27.433056,70.058267
27.466389,70.128919
27.499722,70.068913
27.533056,70.08827
27.566389,70.108594
27.599722,70.128919
27.633056,70.118273
27.666389,70.048588
27.699722,70.058267
27.733056,70.098916
27.766389,70.108594
27.799722,70.078591
27.833056,70.058267
27.866389,70.068913
27.899722,70.058267
27.933056,70.078591
27.966389,70.078591
27.999722,70.108594
28.033056,70.108594
28.066389,70.078591
28.099722,70.028264
28.133056,70.03891
28.166389,70.028264
28.199722,70.008907
28.233056,70.058267
28.266389,70.058267
28.299722,69.988582
28.333056,69.988582
28.366389,69.998261
28.399722,69.968258
28.433056,69.938255
28.466389,69.938255
28.499722,69.978904
28.533056,69.958579
28.566389,69.968258
28.599722,69.988582
28.633056,69.978904
28.666389,69.988582
28.699722,69.998261
28.733056,70.048588
28.766389,70.078591
28.799722,70.1686
28.833056,70.178279
28.866389,70.08827
28.899722,70.03891
28.933056,70.03891
28.966389,70.018585
28.999722,69.988582
29.033056,70.028264
29.066389,69.968258
29.099722,70.008907
29.133056,70.03891
29.166389,70.078591
29.199722,70.048588
29.233056,70.03891
29.266389,70.058267
29.299722,70.028264
29.333056,70.058267
29.366389,70.058267
29.399722,70.058267
29.433056,70.058267
29.466389,70.058267
29.499722,70.048588
29.533056,70.068913
29.566389,70.098916
29.599722,70.098916
29.633056,70.078591
29.666389,70.078591
29.699722,70.118273
29.733056,70.118273
29.766389,70.178279
29.799722,70.108594
29.833056,70.078591
29.866389,70.068913
29.899722,70.098916
29.933056,70.118273
29.966389,70.118273
29.999722,70.078591
30.033056,70.028264
30.066389,70.068913
30.099722,70.108594
30.133056,70.1686
30.166389,70.1686
30.199722,70.178279
30.233056,70.138597
30.266389,70.138597
30.299722,70.118273
30.333056,70.08827
30.366389,70.098916
30.399722,70.058267
30.433056,70.078591
30.466389,70.068913
30.499722,70.08827
30.533056,70.118273
30.566389,70.128919
30.599722,70.128919
30.633056,70.148276
30.666389,70.138597
30.699722,70.148276
30.733056,70.138597
30.766389,70.148276
30.799722,70.128919
30.833056,70.1686
30.866389,70.108594
30.899722,70.138597
30.933056,70.128919
30.966389,70.158922
30.999722,70.198603
31.033056,70.258609
31.066389,70.118273
31.099722,70.198603
31.133056,70.198603
31.166389,70.098916
31.199722,70.108594
31.233056,70.118273
31.266389,70.178279
31.299722,70.188925
31.333056,70.208282
31.366389,70.218928
31.399722,70.248931
31.433056,70.248931
31.466389,70.278934
31.499722,70.308937
31.533056,70.328294
31.566389,70.328294
31.599722,70.318615
31.633056,70.308937
31.666389,70.268288
31.699722,70.288612
31.733056,70.298291
31.766389,70.308937
31.799722,70.318615
31.833056,70.348618
31.866389,70.348618
31.899722,70.358297
31.933056,70.318615
31.966389,70.318615
31.999722,70.328294
32.033056,70.298291
32.066389,70.318615
32.099722,70.278934
32.133056,70.318615
32.166389,70.33894
32.199722,70.368943
32.233056,70.3883
32.266389,70.398946
32.299722,70.418303
32.333056,70.438627
32.366389,70.438627
32.399722,70.448306
32.433056,70.448306
32.466389,70.458952
32.499722,70.46863
32.533056,70.46863
32.566389,70.478309
32.599722,70.458952
32.633056,70.458952
32.666389,70.478309
32.699722,70.488955
32.733056,70.488955
32.766389,70.488955
32.799722,70.498633
32.833056,70.46863
32.866389,70.478309
32.899722,70.478309
32.933056,70.478309
32.966389,70.478309
32.999722,70.488955
33.033056,70.488955
33.066389,70.478309
33.099722,70.428949
33.133056,70.378621
33.166389,70.268288
33.199722,70.248931
33.233056,70.228606
33.266389,70.228606
33.299722,70.148276
33.333056,70.128919
33.366389,70.118273
33.399722,70.08827
33.433056,70.03891
33.466389,70.03891
33.499722,70.078591
33.533056,70.108594
33.566389,70.108594
33.599722,70.08827
33.633056,70.108594
33.666389,70.078591
33.699722,70.03891
33.733056,70.03891
33.766389,70.018585
33.799722,70.03891
33.833056,70.078591
33.866389,70.098916
33.899722,70.058267
33.933056,70.108594
33.966389,70.128919
33.999722,70.108594
34.033056,70.068913
34.066389,70.08827
34.099722,70.068913
34.132778,70.078591
34.166111,70.108594
34.199444,70.098916
34.232778,70.058267
34.266111,70.08827
34.299444,70.058267
34.332778,70.108594
34.366111,70.118273
34.399444,70.128919
34.432778,70.118273
34.466111,70.138597
34.499444,70.158922
34.532778,70.1686
34.566111,70.148276
34.599444,70.158922
34.632778,70.158922
34.666111,70.158922
34.699444,70.1686
34.732778,70.1686
34.766111,70.148276
34.799444,70.158922
34.832778,70.1686
34.866111,70.158922
34.899444,70.158922
34.932778,70.148276
34.966111,70.138597
34.999444,70.148276
35.032778,70.158922
35.066111,70.1686
35.099444,70.188925
35.132778,70.228606
35.166111,70.258609
35.199444,70.208282
35.232778,70.188925
35.266111,70.178279
35.299444,70.1686
35.332778,70.188925
35.366111,70.208282
35.399444,70.1686
35.432778,70.188925
35.466111,70.198603
35.499444,70.198603
35.532778,70.198603
35.566111,70.198603
