time,pressure
0.0,71.090103
0.006667,71.10946
0.006944,71.10946
0.040278,70.973962
0.073611,70.848143
0.106667,70.751359
0.14,70.615862
0.173333,70.5094
0.206667,70.441651
0.24,70.354546
0.273333,70.296475
0.306667,70.190013
0.34,70.102908
0.373333,70.015802
0.406667,69.90934
0.44,69.822234
0.473333,69.754486
0.506667,69.715772
0.54,69.706094
0.573333,69.66738
0.606667,69.599631
0.64,69.522204
0.673333,69.454456
0.706667,69.406064
0.74,69.36735
0.773333,69.318958
0.806667,69.299601
0.84,69.280245
0.873333,69.241531
0.906667,69.193139
0.939722,69.164104
0.973056,69.144747
1.006389,69.096355
1.039722,69.076998
1.073056,69.047963
1.106389,69.00925
1.139722,69.00925
1.173056,68.989893
1.206389,68.941501
1.239722,68.922144
1.273056,68.893109
1.306389,68.835039
1.339722,68.806004
1.373056,68.786647
1.406389,68.76729
1.439722,68.757612
1.473056,68.718898
1.506389,68.689863
1.539722,68.670506
1.573056,68.622114
1.606389,68.583401
1.639722,68.583401
1.673056,68.564044
1.706389,68.535009
1.739722,68.505974
1.772778,68.486617
1.806111,68.46726
1.839444,68.447903
1.872778,68.438225
1.906111,68.399511
1.939444,68.399511
1.972778,68.351119
2.006111,68.331763
2.039444,68.312406
2.072778,68.293049
2.106111,68.264014
2.139444,68.254336
2.172778,68.234979
2.206111,68.215622
2.239444,68.196265
2.272778,68.16723
2.306111,68.138195
2.339444,68.10916
2.372778,68.099481
2.406111,68.070446
2.439444,68.051089
2.472778,68.031733
2.506111,68.022054
2.539444,67.993019
2.572778,67.973662
2.605833,67.973662
2.639167,67.934949
2.6725,67.915592
2.705833,67.915592
2.739167,67.886557
2.7725,67.8672
2.805833,67.838165
2.839167,67.828487
2.8725,67.828487
2.905833,67.789773
2.939167,67.780095
2.9725,67.760738
3.005833,67.751059
3.039167,67.731703
3.0725,67.692989
3.105833,67.692989
3.139167,67.663954
3.1725,67.663954
3.205833,67.663954
3.239167,67.615562
3.2725,67.615562
3.305833,67.557492
3.339167,67.557492
3.3725,67.547813
3.405833,67.518778
3.438889,67.499421
3.472222,67.518778
3.505556,67.470386
3.538889,67.470386
3.572222,67.451029
3.605556,67.431673
3.638889,67.412316
3.672222,67.392959
3.705556,67.373602
3.738889,67.383281
3.772222,67.363924
3.805556,67.334889
3.838889,67.334889
3.872222,67.315532
3.905556,67.305854
3.938889,67.276818
3.972222,67.26714
4.005556,67.26714
4.038889,67.238105
4.072222,67.238105
4.105556,67.199391
4.138889,67.180035
4.172222,67.170356
4.205556,67.170356
4.238889,67.150999
4.271944,67.121964
4.305278,67.121964
4.338611,67.112286
4.371944,67.083251
4.405278,67.073572
4.438611,67.054216
4.471944,67.034859
4.505278,67.02518
4.538611,67.015502
4.571944,67.02518
4.605278,66.996145
4.638611,66.986467
4.671944,66.957432
4.705278,66.957432
4.738611,66.928397
4.771944,66.918718
4.805278,66.90904
4.838611,66.889683
4.871944,66.880005
4.905278,66.870326
4.938611,66.850969
4.971944,66.841291
5.005278,66.821934
5.038611,66.792899
5.071944,66.802577
5.105,66.783221
5.138333,66.783221
5.171667,66.763864
5.205,66.744507
5.238333,66.744507
5.271667,66.715472
5.305,66.715472
5.338333,66.705794
5.371667,66.696115
5.405,66.657402
5.438333,66.676758
5.471667,66.657402
5.505,66.647723
5.538333,66.618688
5.571667,66.599331
5.605,66.589653
5.638333,66.599331
5.671667,66.550939
5.705,66.550939
5.738333,66.550939
5.771667,66.531583
5.805,66.512226
5.838333,66.512226
5.871667,66.502547
5.905,66.483191
5.938333,66.463834
5.971389,66.463834
6.004722,66.463834
6.038056,66.463834
6.071389,66.434799
6.104722,66.42512
6.138056,66.415442
6.171389,66.396085
6.204722,66.386407
6.238056,66.386407
6.271389,66.36705
6.304722,66.357372
6.338056,66.338015
6.371389,66.338015
6.404722,66.338015
6.438056,66.318658
6.471389,66.289623
6.504722,66.279945
6.538056,66.270266
6.571389,66.260588
6.604722,66.250909
6.638056,66.231553
6.671389,66.241231
6.704722,66.202517
6.738056,66.221874
6.771389,66.212196
6.804444,66.202517
6.837778,66.202517
6.871111,66.173482
6.904444,66.163804
6.937778,66.163804
6.971111,66.163804
7.004444,66.134769
7.037778,66.115412
7.071111,66.105734
7.104444,66.096055
7.137778,66.105734
7.171111,66.086377
7.204444,66.06702
7.237778,66.06702
7.271111,66.028307
7.304444,66.028307
7.337778,66.037985
7.371111,65.999271
7.404444,65.999271
7.437778,66.00895
7.471111,65.979915
7.504444,65.989593
7.537778,65.970236
7.571111,65.970236
7.604444,65.950879
7.6375,65.960558
7.670833,65.921844
7.704167,65.921844
7.7375,65.931523
7.770833,65.902487
7.804167,65.892809
7.8375,65.883131
7.870833,65.863774
7.904167,65.854096
7.9375,65.863774
7.970833,65.844417
8.004167,65.844417
8.0375,65.854096
8.070833,65.834739
8.104167,65.815382
8.1375,65.82506
8.170833,65.805704
8.204167,65.796025
8.2375,65.796025
8.270833,65.796025
8.304167,65.786347
8.3375,65.786347
8.370833,65.776668
8.404167,65.776668
8.4375,65.737955
8.470556,65.747633
8.503889,65.737955
8.537222,65.728276
8.570556,65.718598
8.603889,65.718598
8.637222,65.70892
8.670556,65.699241
8.703889,65.689563
8.737222,65.679885
8.770556,65.689563
8.803889,65.679885
8.837222,65.660528
8.870556,65.650849
8.903889,65.650849
8.937222,65.650849
8.970556,65.602457
9.003889,65.602457
9.037222,65.602457
9.070556,65.592779
9.103889,65.573422
9.137222,65.583101
9.154444,65.573422
9.154722,65.573422
9.404444,65.989593
9.654444,66.134769
9.904444,66.357372
10.154167,66.541261
10.404167,66.72515
10.654167,66.880005
10.904167,67.02518
11.153889,67.180035
11.403889,67.334889
11.4475,67.363924
11.447778,67.363924
11.481111,67.218748
11.514444,67.102607
11.547778,67.005824
11.581111,66.889683
11.614444,66.812256
11.647778,66.72515
11.681111,66.647723
11.714444,66.589653
11.747778,66.579975
11.781111,66.570296
11.814444,66.541261
11.8475,66.483191
11.880833,66.42512
11.914167,66.357372
11.9475,66.328337
11.980833,66.289623
12.014167,66.260588
12.0475,66.241231
12.080833,66.212196
12.114167,66.212196
12.1475,66.183161
12.180833,66.183161
12.214167,66.144447
12.2475,66.115412
12.280833,66.086377
12.314167,66.076698
12.3475,66.057342
12.380833,66.028307
12.414167,66.018628
12.4475,65.989593
12.480833,65.979915
12.514167,65.970236
12.5475,65.941201
12.580833,65.912166
12.614167,65.921844
12.6475,65.892809
12.680556,65.873452
12.713889,65.854096
12.747222,65.844417
12.780556,65.82506
12.813889,65.82506
12.847222,65.805704
12.880556,65.796025
12.913889,65.786347
12.947222,65.737955
12.980556,65.757312
13.013889,65.728276
13.047222,65.70892
13.080556,65.699241
13.113889,65.689563
13.147222,65.679885
13.180556,65.679885
13.213889,65.670206
13.247222,65.660528
13.280556,65.641171
13.313889,65.650849
13.347222,65.650849
13.380556,65.621814
13.413889,65.612136
13.447222,65.602457
13.480556,65.621814
13.513611,65.612136
13.546944,65.583101
13.580278,65.592779
13.613611,65.583101
13.646944,65.592779
13.680278,65.554066
13.713611,65.534709
13.746944,65.534709
13.780278,65.534709
13.813611,65.534709
13.846944,65.515352
13.880278,65.515352
13.913611,65.486317
13.946944,65.486317
13.980278,65.495995
14.013611,65.486317
14.046944,65.46696
14.080278,65.457282
14.113611,65.46696
14.146944,65.447603
14.180278,65.437925
14.213611,65.428246
14.246944,65.428246
14.280278,65.40889
14.313611,65.399211
14.346944,65.370176
14.38,65.370176
14.413333,65.370176
14.446667,65.350819
14.48,65.341141
14.513333,65.331463
14.546667,65.331463
14.58,65.321784
14.613333,65.312106
14.646667,65.312106
14.68,65.302427
14.713333,65.263714
14.746667,65.283071
14.78,65.283071
14.813333,65.254036
14.846667,65.254036
14.88,65.244357
14.913333,65.244357
14.946667,65.234679
14.98,65.225
15.013333,65.205644
15.046667,65.205644
15.08,65.176608
15.113333,65.186287
15.135556,65.176608
15.135833,65.176608
15.385556,65.592779
15.635556,65.737955
15.665556,65.747633
15.665833,65.747633
15.699167,65.660528
15.7325,65.554066
15.765833,65.46696
15.799167,65.447603
15.8325,65.437925
15.865833,65.40889
15.899167,65.350819
15.9325,65.312106
15.965833,65.302427
15.999167,65.302427
16.032222,65.283071
16.065556,65.254036
16.098889,65.263714
16.132222,65.263714
16.165556,65.254036
16.198889,65.244357
16.232222,65.244357
16.265556,65.244357
16.298889,65.225
16.332222,65.225
16.365556,65.205644
16.398889,65.195965
16.432222,65.16693
16.465556,65.157252
16.498889,65.157252
16.532222,65.147573
16.565556,65.118538
16.598889,65.147573
16.632222,65.099181
16.665556,65.099181
16.698889,65.099181
16.732222,65.089503
16.765556,65.089503
16.798889,65.079825
16.832222,65.070146
16.865556,65.060468
16.898611,65.050789
16.931944,65.021754
16.965278,65.012076
16.998611,65.012076
17.031944,65.012076
17.065278,65.002397
17.098611,64.973362
17.131944,64.983041
17.165278,64.963684
17.198611,64.963684
17.231944,64.944327
17.265278,64.944327
17.298611,64.92497
17.331944,64.905614
17.365278,64.915292
17.398611,64.895935
17.431944,64.876578
17.465278,64.886257
17.498611,64.8669
17.531944,64.8669
17.565278,64.837865
17.598611,64.847543
17.631944,64.828186
17.665278,64.818508
17.698611,64.799151
17.731667,64.80883
17.765,64.799151
17.798333,64.789473
17.831667,64.789473
17.865,64.760438
17.898333,64.741081
17.931667,64.750759
17.965,64.741081
17.998333,64.741081
18.031667,64.712046
18.065,64.721724
18.098333,64.702367
18.131667,64.702367
18.165,64.702367
18.198333,64.692689
18.231667,64.702367
18.265,64.663654
18.298333,64.663654
18.331667,64.653976
18.365,64.644297
18.398333,64.605584
18.398889,64.605584
18.399167,64.605584
18.4325,64.595905
18.465833,64.605584
18.499167,64.634619
18.5325,64.586227
18.565556,64.586227
18.598889,64.576548
18.632222,64.56687
18.665556,64.56687
18.698889,64.576548
18.732222,64.547513
18.765556,64.557192
18.798889,64.518478
18.832222,64.518478
18.865556,64.518478
18.898889,64.5088
18.932222,64.518478
18.965556,64.5088
18.998889,64.479765
19.032222,64.470086
19.065556,64.460408
19.098889,64.470086
19.132222,64.441051
19.165556,64.441051
19.198889,64.460408
19.232222,64.441051
19.265556,64.431373
19.298889,64.412016
19.332222,64.412016
19.365556,64.412016
19.398611,64.382981
19.431944,64.382981
19.465278,64.373302
19.498611,64.373302
19.531944,64.373302
19.565278,64.363624
19.598611,64.353946
19.631944,64.363624
19.665278,64.32491
19.698611,64.305554
19.731944,64.32491
19.765278,64.315232
19.798611,64.334589
19.831944,64.295875
19.865278,64.295875
19.898611,64.295875
19.931944,64.286197
19.965278,64.26684
19.998611,64.26684
20.031944,64.257162
20.065278,64.247483
20.098611,64.257162
20.131944,64.247483
20.165278,64.247483
20.198611,64.237805
20.231944,64.228126
20.265,64.237805
20.298333,64.199091
20.331667,64.20877
20.365,64.199091
20.398333,64.179735
20.431667,64.199091
20.465,64.189413
20.498333,64.160378
20.531667,64.170056
20.565,64.160378
20.598333,64.141021
20.631667,64.150699
20.665,64.150699
20.698333,64.141021
20.731667,64.111986
20.765,64.102307
20.798333,64.092629
20.831667,64.082951
20.865,64.092629
20.898333,64.082951
20.931667,64.073272
20.965,64.073272
20.998333,64.073272
21.031667,64.034559
21.065,64.053916
21.098056,64.063594
21.131389,64.044237
21.164722,64.015202
21.198056,64.015202
21.231389,64.015202
21.264722,64.005524
21.298056,64.005524
21.331389,63.995845
21.364722,63.986167
21.398056,63.995845
21.431389,63.96681
21.464722,63.986167
21.498056,63.96681
21.531389,63.957132
21.564722,63.947453
21.598056,63.957132
21.631389,63.937775
21.664722,63.937775
21.698056,63.928096
21.731389,63.918418
21.764722,63.928096
21.798056,63.928096
21.831389,63.90874
21.864722,63.879705
21.898056,63.899061
21.931111,63.889383
21.964444,63.879705
21.997778,63.879705
22.031111,63.870026
22.064444,63.870026
22.097778,63.850669
22.131111,63.831313
22.164444,63.850669
22.197778,63.840991
22.231111,63.840991
22.264444,63.831313
22.297778,63.821634
22.331111,63.811956
22.364444,63.831313
22.397778,63.811956
22.431111,63.792599
22.464444,63.792599
22.497778,63.792599
22.531111,63.802277
22.564444,63.782921
22.597778,63.792599
22.631111,63.782921
22.664444,63.792599
22.697778,63.773242
22.731111,63.773242
22.764167,63.773242
22.7975,63.763564
22.830833,63.753886
22.864167,63.744207
22.8975,63.744207
22.930833,63.744207
22.964167,63.744207
22.9975,63.734529
23.030833,63.734529
23.064167,63.705494
23.0975,63.72485
23.130833,63.695815
23.164167,63.695815
23.1975,63.695815
23.230833,63.705494
23.264167,63.695815
23.2975,63.686137
23.330833,63.686137
23.364167,63.686137
23.3975,63.66678
23.430833,63.66678
23.464167,63.676458
23.4975,63.657102
23.530833,63.647423
23.564167,63.657102
23.5975,63.637745
23.630556,63.637745
23.663889,63.637745
23.697222,63.618388
23.730556,63.560318
23.763889,63.550639
23.797222,63.560318
23.830556,63.560318
23.863889,63.550639
23.897222,63.560318
23.930556,63.579675
23.963889,63.560318
23.997222,63.550639
24.030556,63.540961
24.063889,63.502247
24.097222,63.502247
24.130556,63.395785
24.163889,63.434499
24.197222,63.444177
24.230556,63.42482
24.263889,63.434499
24.297222,63.42482
24.330556,63.42482
24.363889,63.405464
24.397222,63.395785
24.430556,63.386107
24.463611,63.376428
24.496944,63.36675
24.530278,63.357072
24.563611,63.337715
24.596944,63.357072
24.630278,63.328036
24.663611,63.30868
24.696944,63.30868
24.730278,63.30868
24.763611,63.289323
24.796944,63.30868
24.830278,63.260288
24.863611,63.269966
24.896944,63.269966
24.930278,63.240931
24.963611,63.250609
24.996944,63.221574
25.030278,63.221574
25.063611,63.202217
25.096944,63.182861
25.130278,63.202217
25.163611,63.192539
25.196944,63.182861
25.230278,63.182861
25.263611,63.163504
25.296667,63.153826
25.33,63.144147
25.363333,63.153826
25.396667,63.134469
25.43,63.134469
25.463333,63.105434
25.496667,63.086077
25.53,63.095755
25.563333,63.076398
25.596667,63.076398
25.63,63.076398
25.663333,63.076398
25.696667,63.057042
25.73,63.037685
25.763333,63.037685
25.796667,63.018328
25.83,63.028006
25.863333,63.00865
25.896667,63.028006
25.93,63.00865
25.963333,62.998971
25.996667,62.989293
26.03,62.998971
26.063333,62.979615
26.096667,62.950579
26.129722,62.950579
26.163056,62.940901
26.196389,62.902187
26.229722,62.863474
26.263056,62.815082
26.296389,62.795725
26.329722,62.795725
26.363056,62.776368
26.396389,62.757012
26.429722,62.776368
26.463056,62.747333
26.496389,62.747333
26.529722,62.747333
26.563056,62.737655
26.596389,62.737655
26.629722,62.737655
26.663056,62.727976
26.696389,62.718298
26.729722,62.698941
26.763056,62.689263
26.796389,62.698941
26.829722,62.689263
26.863056,62.669906
26.896389,62.669906
26.929722,62.650549
26.962778,62.660228
26.996111,62.650549
27.029444,62.660228
27.062778,62.650549
27.096111,62.640871
27.129444,62.611836
27.162778,62.611836
27.196111,62.640871
27.229444,62.631193
27.262778,62.592479
27.296111,62.611836
27.329444,62.582801
27.362778,62.592479
27.396111,62.592479
27.429444,62.582801
27.462778,62.582801
27.496111,62.582801
27.529444,62.582801
27.562778,62.573122
27.596111,62.563444
27.629444,62.582801
27.662778,62.582801
27.696111,62.582801
27.729444,62.553765
27.762778,62.563444
27.795833,62.573122
27.829167,62.553765
27.8625,62.563444
27.895833,62.563444
27.929167,62.573122
27.9625,62.573122
27.995833,62.573122
28.029167,62.573122
28.0625,62.563444
28.095833,62.563444
28.129167,62.563444
28.1625,62.563444
28.195833,62.563444
28.229167,62.544087
28.2625,62.553765
28.295833,62.563444
28.329167,62.573122
28.3625,62.544087
28.395833,62.563444
28.429167,62.534409
28.4625,62.544087
28.495833,62.544087
28.529167,62.553765
28.5625,62.534409
28.595833,62.534409
28.629167,62.534409
28.662222,62.52473
28.695556,62.52473
28.728889,62.544087
28.762222,62.515052
28.795556,62.505374
28.828889,62.52473
28.862222,62.52473
28.895556,62.515052
28.928889,62.515052
28.962222,62.495695
28.995556,62.495695
29.028889,62.495695
29.062222,62.486017
29.095556,62.486017
29.128889,62.476338
29.162222,62.495695
29.195556,62.476338
29.228889,62.486017
29.262222,62.476338
29.295556,62.486017
29.328889,62.476338
29.362222,62.476338
29.395556,62.495695
29.428889,62.476338
29.462222,62.476338
29.495278,62.476338
29.528611,62.476338
29.561944,62.46666
29.595278,62.486017
29.628611,62.476338
29.661944,62.476338
29.695278,62.46666
29.728611,62.46666
29.761944,62.46666
29.795278,62.46666
29.828611,62.447303
29.861944,62.447303
29.895278,62.437625
29.928611,62.447303
29.961944,62.447303
29.995278,62.427946
30.028611,62.447303
30.061944,62.437625
30.095278,62.447303
30.128611,62.427946
30.161944,62.427946
30.195278,62.427946
30.228611,62.437625
30.261944,62.418268
30.295278,62.427946
30.328333,62.40859
30.361667,62.437625
30.395,62.437625
30.428333,62.418268
30.4525,62.398911
30.452778,62.398911
30.486111,62.398911
30.519444,62.398911
30.552778,62.40859
30.586111,62.40859
30.619444,62.40859
30.652778,62.389233
30.686111,62.398911
30.719444,62.389233
30.752778,62.389233
30.786111,62.389233
30.819444,62.389233
30.852778,62.369876
30.886111,62.369876
30.919444,62.389233
30.952778,62.379555
30.986111,62.369876
31.019444,62.379555
31.052778,62.369876
31.086111,62.360198
31.119444,62.379555
31.1525,62.369876
31.185833,62.360198
31.219167,62.340841
31.2525,62.340841
31.285833,62.340841
31.319167,62.321484
31.3525,62.302127
31.385833,62.302127
31.419167,62.292449
31.4525,62.273092
31.485833,62.263414
31.519167,62.273092
31.5525,62.2247
31.585833,62.244057
31.619167,62.205344
31.6525,62.215022
31.685833,62.215022
31.719167,62.215022
31.7525,62.195665
31.785833,62.2247
31.819167,62.195665
31.8525,62.2247
31.885833,62.195665
31.919167,62.215022
31.9525,62.176308
31.985833,62.176308
32.018889,62.176308
32.052222,62.137595
32.085556,62.137595
32.118889,62.10856
32.152222,62.127916
32.185556,62.127916
32.218889,62.10856
32.252222,62.098881
32.285556,62.098881
32.318889,62.079525
32.352222,62.079525
32.385556,62.098881
32.418889,62.079525
32.452222,62.089203
32.485556,62.10856
32.518889,62.089203
32.552222,62.089203
32.585556,62.089203
32.618889,62.079525
32.652222,62.089203
32.685556,62.060168
32.718889,62.050489
32.752222,62.060168
32.785556,62.060168
32.818889,62.060168
32.851944,62.089203
32.885278,62.069846
32.918611,62.069846
32.951944,62.060168
32.985278,62.040811
33.018611,62.050489
33.051944,62.040811
33.085278,62.021454
33.118611,61.992419
33.151944,61.982741
33.185278,61.992419
33.218611,61.973062
33.251944,61.992419
33.285278,61.992419
33.318611,61.992419
33.351944,62.011776
33.385278,62.002097
33.418611,62.002097
33.451944,62.021454
33.485278,61.982741
33.518611,62.011776
33.551944,62.002097
33.585278,62.002097
33.618611,61.992419
33.651944,62.002097
33.685,62.002097
33.718333,61.982741
33.751667,61.992419
33.785,61.973062
33.818333,61.992419
33.851667,61.973062
33.885,61.944027
33.918333,61.934349
33.951667,61.944027
33.985,61.934349
34.018333,61.934349
34.051667,61.944027
34.085,61.934349
34.118333,61.934349
34.151667,61.934349
34.185,61.92467
34.218333,61.934349
34.251667,61.934349
34.285,61.944027
34.318333,61.92467
34.351667,61.92467
34.385,61.944027
34.418333,61.934349
34.451667,61.92467
34.485,61.92467
34.518056,61.914992
34.551389,61.92467
34.584722,61.914992
34.618056,61.905314
34.651389,61.914992
34.684722,61.914992
34.718056,61.885957
34.751389,61.905314
34.784722,61.92467
34.818056,61.885957
34.851389,61.895635
34.884722,61.885957
34.918056,61.895635
34.951389,61.914992
34.984722,61.905314
35.018056,61.895635
35.051389,61.8666
35.084722,61.8666
35.118056,61.8666
35.151389,61.876278
35.184722,61.837565
35.218056,61.837565
35.251389,61.818208
35.284722,61.798851
35.318056,61.80853
35.351111,61.80853
35.384444,61.789173
35.417778,61.80853
35.451111,61.80853
35.484444,61.789173
35.517778,61.798851
35.551111,61.789173
35.584444,61.779495
35.617778,61.769816
35.651111,61.760138
35.684444,61.721424
35.717778,61.731103
35.751111,61.731103
35.784444,61.750459
35.817778,61.731103
35.851111,61.721424
35.884444,61.731103
35.917778,61.740781
35.951111,61.721424
35.984444,61.721424
36.017778,61.721424
36.051111,61.711746
36.084444,61.731103
36.117778,61.711746
36.151111,61.711746
36.184444,61.721424
36.2175,61.721424
36.250833,61.731103
36.284167,61.711746
36.3175,61.721424
36.350833,61.702067
36.384167,61.702067
36.4175,61.702067
36.450833,61.682711
36.484167,61.682711
36.5175,61.673032
36.550833,61.673032
