time,pressure
0.0,205.591402
3.629444,205.668829
7.210833,205.740449
9.434167,205.84304
12.979444,205.822716
14.737222,205.665926
15.614167,205.436548
19.900556,205.304922
22.153889,205.279758
24.268056,205.542042
32.885833,205.712382
33.7925,205.24782
36.931111,203.999308
38.757778,202.130411
40.555,199.908253
43.297778,197.727713
44.650556,195.948825
46.012222,191.32546
48.769167,185.551334
57.248056,179.341681
57.728333,178.403845
59.937222,177.401164
62.217222,175.929081
64.532222,174.489905
65.960556,172.430344
72.128611,171.105373
74.011944,170.033976
77.533056,169.003227
79.295833,168.297673
80.719444,167.584376
83.505,166.954313
86.7825,166.352317
88.182778,165.685476
90.419722,165.130905
91.857778,164.421479
94.411667,164.027568
95.934167,163.638497
97.569722,162.907779
103.091389,162.200289
105.4,161.690238
110.039167,160.832733
111.783611,160.467858
114.531944,159.610353
117.606944,159.378071
118.15,159.03836
122.993611,157.314639
127.709722,156.416485
131.006944,155.727384
131.484167,155.061511
134.226111,154.168195
136.563056,153.300044
137.488889,152.378662
140.273333,151.329524
146.488333,150.076173
148.461667,149.117045
151.310833,148.701842
154.992778,147.987577
156.424722,147.399131
158.681111,146.939408
160.9725,146.379029
161.870833,145.713156
166.991667,145.221494
170.7575,143.648756
190.646389,141.079145
191.555833,140.727819
194.348333,140.420046
196.617778,140.028072
199.558889,139.694167
200.955556,139.321549
205.177778,139.157985
206.987778,138.984742
208.911667,138.888926
211.56,138.786335
212.944444,138.674065
214.789167,138.5647
216.246667,138.419524
219.453611,137.876566
223.493333,137.656867
223.969444,137.471042
227.218611,137.039386
229.57,136.637733
231.503333,136.317378
233.383056,135.966053
235.308889,135.710543
237.524722,135.852816
239.35,136.084129
241.1575,136.490621
242.941667,136.657089
244.774722,136.758713
247.376389,136.847754
249.7375,136.740324
251.174722,136.252533
253.040556,135.960246
255.793611,135.489876
257.611111,135.170489
259.4175,134.96434
259.884722,134.822067
262.664167,134.667213
265.053056,134.483324
266.923056,134.22975
268.317778,134.075864
271.270556,133.876489
274.900556,133.10125
279.936944,132.724761
283.613333,132.270844
286.965278,131.961136
291.606389,131.692077
294.083333,131.56529
295.466389,131.485927
297.336667,131.393015
298.259722,131.340751
301.143889,131.357205
305.7325,131.32333
307.106111,131.274938
310.851389,131.206222
315.544444,131.140409
316.950833,131.005879
319.93,130.942002
320.906944,130.856832
321.317222,130.766823
322.223889,130.555834
326.320833,130.312907
327.709167,130.071915
330.440278,129.913189
331.846944,129.64413
334.153333,129.240541
340.866944,128.854374
344.675,128.780818
346.544722,129.959646
366.351944,132.206967
368.6975,131.575936
370.537222,131.030075
371.956389,130.796826
372.890278,130.694235
377.89,130.58003
380.163056,130.523896
382.030556,130.531638
387.285,130.531638
389.498056,130.507442
392.681667,130.444533
394.520833,130.456147
395.886944,130.432919
398.793333,130.31581
400.657778,130.179345
402.031389,130.109661
404.383611,130.108693
406.308333,130.107725
407.719722,129.97997
413.951111,129.955774
416.204444,129.976099
418.957222,129.961581
420.327222,129.844473
422.508333,129.766078
426.171667,129.767046
428.473056,129.812534
429.848333,129.761239
432.110278,129.706072
434.848889,129.658648
438.246944,129.67994
439.604167,129.651873
442.3825,129.526054
443.788611,129.497019
446.951111,129.445723
450.658611,129.376039
452.926111,129.346036
455.328056,129.30829
456.6675,129.264737
458.484444,129.221185
462.354167,129.22312
465.124444,129.398299
465.558056,129.596706
489.558056,129.209571
513.558056,128.822435
537.558056,130.177409
561.558056,129.69349
585.558056,128.919219
609.558056,128.532083
633.558056,129.790274
657.558056,133.177709
681.558056,135.113387
705.558056,132.403438
729.558056,132.306654
753.558056,131.532383
777.558056,131.242032
801.558056,130.95168
825.558056,131.145248
849.558056,131.048464
873.558056,130.854896
897.558056,131.629167
921.558056,130.854896
945.558056,130.467761
969.558056,129.69349
993.558056,127.95138
1017.558056,130.370977
1041.558056,127.467461
1065.558056,128.822435
1089.558056,129.69349
1113.558056,129.887058
1137.558056,136.371577
1161.558056,135.403738
1185.558056,134.339116
1209.558056,133.855196
1233.558056,133.661629
1257.558056,133.661629
1281.558056,133.758413
1305.558056,132.984142
1329.558056,132.69379
1353.558056,132.209871
1377.558056,132.016303
1401.558056,131.532383
1425.558056,131.338816
1449.558056,131.629167
1473.558056,131.4356
1497.558056,132.500222
1521.558056,131.145248
1545.558056,132.113087
1569.558056,132.403438
1593.558056,131.725951
1617.558056,131.048464
1641.558056,130.564545
1665.558056,130.274193
1689.558056,130.564545
1713.558056,129.790274
1737.558056,129.983842
1761.558056,129.499922
1785.558056,129.112787
1809.558056,128.822435
1833.558056,128.725651
1857.558056,128.532083
1881.558056,128.4353
1905.558056,128.4353
1929.558056,128.4353
1953.558056,128.628867
1977.558056,129.209571
2001.558056,128.532083
2025.558056,128.532083
2049.558056,129.112787
2073.558056,134.048764
2097.558056,132.306654
2121.558056,129.790274
2145.558056,128.628867
2169.558056,129.016003
2193.558056,128.628867
2217.558056,128.241732
2241.558056,127.273893
2265.558056,126.886758
2289.558056,126.499622
2313.558056,126.015703
2337.558056,125.918919
2361.558056,125.435
2385.558056,126.015703
2409.558056,130.370977
2433.558056,130.467761
2457.558056,129.69349
2481.558056,129.403138
2505.558056,129.403138
2529.558056,129.403138
2553.558056,129.306354
2577.558056,129.306354
2601.558056,129.499922
2625.558056,129.112787
2649.558056,129.499922
2673.558056,129.016003
2697.558056,128.822435
2721.558056,129.209571
2745.558056,129.016003
2769.558056,129.209571
2793.558056,130.274193
2817.558056,129.112787
2841.558056,128.725651
2865.558056,128.628867
2889.558056,129.016003
2913.558056,128.048164
2937.558056,127.854596
2961.558056,127.661029
2985.558056,127.661029
3009.558056,127.177109
3033.558056,127.370677
3057.558056,127.080325
3081.558056,127.273893
3105.558056,127.080325
3129.558056,127.273893
3153.558056,126.983541
3177.558056,126.886758
3201.558056,126.789974
3225.558056,126.886758
3249.558056,126.983541
3273.558056,126.789974
3297.558056,126.789974
3321.558056,126.983541
3345.558056,126.69319
3369.558056,126.596406
3393.558056,126.69319
3417.558056,126.209271
3441.558056,126.209271
3465.558056,126.402838
3489.558056,126.209271
3513.558056,126.402838
3537.558056,125.725351
3561.558056,125.822135
3585.558056,128.628867
3609.558056,126.112487
3633.558056,124.273593
3657.558056,125.822135
3681.558056,123.789674
3705.558056,122.918619
3729.558056,125.047864
3753.558056,126.69319
3777.558056,127.080325
3801.558056,127.467461
3825.558056,128.241732
3849.558056,128.4353
3873.558056,128.725651
3897.558056,128.628867
3921.558056,127.273893
3945.558056,126.69319
3969.558056,129.983842
3993.558056,126.209271
4017.558056,125.435
4041.558056,124.563945
4065.558056,126.209271
4089.558056,128.048164
4113.558056,128.338516
4137.558056,128.725651
4161.558056,129.016003
4185.558056,129.499922
4209.558056,128.144948
4233.558056,126.789974
4257.558056,126.015703
4281.558056,132.887358
4305.558056,131.4356
4329.558056,128.628867
4353.558056,128.338516
4377.558056,127.757812
4401.558056,127.273893
4425.558056,127.370677
4449.558056,126.69319
4473.558056,127.080325
4497.558056,127.757812
4521.558056,127.080325
4545.558056,128.144948
4569.558056,126.983541
4593.558056,131.338816
4617.558056,135.500522
4641.558056,138.404038
4665.558056,145.082126
4689.558056,131.532383
4713.558056,131.532383
4737.558056,131.048464
4761.558056,130.370977
4785.558056,130.274193
4809.558056,130.370977
4833.558056,130.080625
4857.558056,130.274193
4881.558056,130.080625
4905.558056,130.080625
4929.558056,130.370977
4953.558056,130.274193
4977.558056,130.370977
5001.558056,130.758112
5025.558056,130.661329
5049.558056,130.758112
5073.558056,130.467761
5097.558056,131.048464
5121.558056,131.048464
5145.558056,131.242032
5169.558056,131.629167
5193.558056,131.048464
5217.558056,131.338816
5241.558056,131.919519
5265.558056,132.500222
5289.558056,131.919519
5313.558056,132.016303
5337.558056,132.306654
5361.558056,132.113087
5385.558056,132.016303
5409.558056,132.016303
5433.558056,131.822735
5457.558056,132.113087
5481.558056,132.209871
5505.558056,132.209871
5529.558056,132.016303
5553.558056,131.822735
5577.558056,132.016303
5601.558056,132.016303
5625.558056,131.822735
5649.558056,132.113087
5658.960556,132.247616
5660.614167,132.283426
5663.2175,132.271812
5665.303333,132.105344
5667.400278,132.04437
5673.557778,132.137283
5684.379722,132.024046
5684.807778,132.03082
5685.214444,132.029853
5688.961944,132.052113
5697.557778,131.860481
5700.018056,131.971782
5702.100278,131.928229
5703.333333,131.87887
5706.124167,131.863384
5709.319444,132.050177
5710.993889,132.10728
5713.100556,132.000817
5717.238611,132.075341
5718.070833,132.198257
5720.168333,132.310526
5721.557778,132.034692
5722.683333,132.220517
5723.910833,132.170189
5727.649722,132.386985
5732.417222,132.343432
5733.326389,132.25923
5738.154722,132.339561
5742.232778,132.283426
5743.465,132.125669
5745.557778,132.176964
5746.386944,132.124701
5747.646667,132.145025
5750.575833,132.005657
5752.237778,131.759826
5754.114167,131.611746
5755.327222,131.214932
5756.170278,131.516898
5758.674722,131.429793
5759.089444,131.327202
5761.303056,130.932323
5767.888889,130.820054
5769.557778,131.688205
5770.778611,130.804569
5772.558333,130.643908
5774.504722,130.55777
5775.334167,130.524863
5778.799722,130.545188
5780.796389,130.588741
5782.864722,130.489053
5784.580278,130.281936
5785.402778,130.23064
5788.223611,130.171602
5791.559722,130.105789
5793.557778,130.384527
5793.688889,129.936417
5796.998056,129.761239
5800.740556,129.818341
5802.543056,129.798984
5806.716389,129.708975
5807.954722,129.705104
5809.931944,129.773821
5812.345278,129.706072
5816.980278,129.59477
5817.557778,129.607352
5819.393611,129.69349
5822.5275,129.883186
5824.611389,129.830923
5826.116111,129.774788
5827.269444,129.744785
5831.449167,129.777692
5831.946667,129.791242
5834.378333,129.805759
5836.810278,129.580253
5839.776389,129.506697
5841.557778,129.632516
5843.084167,129.555089
5858.884444,129.240541
5861.665,129.22312
5864.543056,129.311194
5865.557778,129.483469
5867.02,129.297644
5867.847778,129.218281
5870.432778,129.162146
5872.446389,129.274416
5876.808611,129.354746
5878.974722,129.233767
5880.301944,129.206667
5883.1425,129.246348
5884.9225,129.310226
5886.933611,129.315065
5888.565,129.173761
5889.557778,129.225056
5890.652222,129.101173
5891.458889,129.077944
5894.356111,129.090526
5898.132222,128.934704
5900.792778,128.767268
5903.7025,128.755654
5907.469444,128.73533
5909.377778,128.568861
5909.843889,128.544665
5911.566667,128.511759
5913.557778,128.868891
5915.462222,128.633706
5917.095833,128.608543
5918.407222,128.533051
5921.633056,128.33658
5922.622222,128.396586
5925.081944,128.510791
5927.1325,128.615318
5929.213056,128.550472
5931.281667,128.45756
5931.706389,128.469174
5934.178889,128.544665
5937.283333,128.565958
5937.557778,128.514662
5938.153889,128.548537
5940.104444,128.423685
5943.688333,128.361744
5949.074722,128.377229
5951.239722,128.328837
5952.474722,128.282381
5955.398611,128.321095
5957.509444,128.383036
5959.158889,128.400457
5961.557778,128.110106
5961.603056,128.269799
5962.008889,128.223343
5964.844722,128.101395
5967.336389,128.10817
5969.426944,128.029775
5971.256667,127.926216
5972.951389,127.815883
5976.667222,127.861371
5977.08,127.863307
5981.639444,127.884599
5982.883889,127.899117
5985.557778,127.802333
5985.766111,127.933959
5987.833333,127.974608
5988.235278,128.005579
5991.534167,127.98719
5992.818611,127.992029
5995.745,127.911699
5996.564167,127.936863
5999.461667,128.027839
6001.025833,128.125591
6002.619722,128.07236
6009.557778,127.814915
6017.319167,131.196543
6020.370833,133.215455
6022.256389,135.532461
6025.603889,137.681063
6027.688333,138.378875
6031.0375,138.140786
6032.695,136.925181
6033.557778,131.257517
6034.795278,135.997991
6036.87,134.974986
6038.100833,134.077799
6039.773611,133.109961
6042.127222,132.139218
6044.613889,131.648524
6046.246389,131.74434
6048.740278,131.248807
6050.396667,130.829733
6051.6675,130.56648
6054.5475,130.177409
6056.997778,129.950935
6057.557778,133.921977
6058.672778,129.760271
6060.740833,129.571542
6061.974444,129.449595
6064.423611,129.196021
6066.006944,129.042134
6068.650556,128.758558
6070.711944,128.61435
6072.330833,128.522405
6074.435278,128.359808
6075.968333,128.219472
6077.69,128.110106
6079.266111,128.012354
6081.557778,128.945351
6082.179444,127.97364
6084.295833,127.952348
6085.12,127.773298
6090.150278,127.631993
6093.896389,127.567148
6095.110833,127.484882
6095.523056,127.41423
6100.368056,127.260343
6102.566111,127.269054
6104.227778,127.255504
6105.557778,127.584569
6105.960278,127.038708
6107.994167,126.878047
6110.576944,126.761906
6112.076667,126.745453
6114.415556,126.695126
6115.698611,126.548014
6117.768611,126.369932
6121.938611,126.341864
6123.996389,126.317668
6125.228889,126.193785
6128.159167,126.026349
6129.557778,126.538336
6129.731944,126.054416
6131.825833,126.060223
6133.876111,126.118294
6136.311111,126.116358
6138.074167,126.141522
6140.485,126.407677
6143.281389,126.610924
6145.78,126.761906
6147.392222,126.924503
6150.351667,127.284539
6152.383333,127.553598
6153.557778,126.046674
6154.0375,127.720067
6156.490278,127.87105
6158.468611,128.401425
6163.536389,128.746944
6168.5,129.143758
6172.909444,129.503794
6177.557778,128.32303
6186.963333,129.570574
6189.045556,129.35765
6196.215278,129.265705
6197.445,129.264737
6201.230278,129.233767
6201.557778,129.670262
6202.867778,129.154404
6204.858333,129.094398
6206.914167,128.910508
6210.285833,128.817596
6212.362778,128.520469
6214.03,128.322062
6217.855,128.133334
6220.345278,128.034614
6222.409167,127.956219
6224.505833,127.587473
6225.557778,128.875666
6232.273889,127.520692
6234.061389,127.423908
6236.151667,127.246794
6238.244444,127.127749
6243.118611,127.027094
6244.791389,126.968056
6247.2725,126.792877
6248.955,126.660283
6249.557778,127.481011
6249.779444,126.618666
6252.246111,126.531561
6255.154167,126.440584
6256.400833,126.441552
6258.12,126.364125
6259.916111,126.226692
6262.440833,126.140554
6265.019444,126.144425
6267.101944,126.138618
6268.849167,126.111519
6269.268889,126.040867
6272.610556,126.006024
6273.557778,126.362189
6277.319722,126.108615
6278.966667,126.132811
6279.797222,126.127004
6282.746667,126.06603
6284.383333,126.066998
6286.91,126.118294
6288.154167,126.071837
6290.255833,126.010864
6292.739722,125.930533
6294.805556,125.998282
6296.438333,126.055384
6297.557778,126.029253
6298.014722,126.112487
6300.899444,126.182171
6303.070556,126.171525
6305.183056,126.233466
6307.428333,126.27218
6308.247222,126.293472
6311.493611,126.155072
6314.9,126.076677
6316.919444,126.047641
6317.744167,125.99441
6320.188889,125.986668
6321.557778,126.232499
6322.284444,125.916015
6325.383056,125.807617
6327.182222,125.84246
6329.200833,125.905369
6330.043333,125.981828
6333.437778,126.061191
6335.3675,126.127004
6337.446944,126.217013
6339.069167,126.193785
6345.557778,125.92279
6353.318889,125.678895
6354.08,125.60921
6359.430556,125.563722
6361.519722,125.544365
6361.945278,125.50178
6363.998889,125.458228
6367.258333,125.356605
6369.557778,125.39435
6369.606111,125.359508
6371.259167,125.291759
6372.794444,125.246271
6375.186944,125.186265
6377.658333,125.203686
6378.958333,125.16594
6380.899167,125.141744
6384.960833,125.090449
6390.168889,125.080771
6391.405556,125.017861
6393.459167,125.033346
6393.557778,124.891074
6394.815278,125.014958
6397.326389,125.01399
6399.784167,125.039153
6400.622778,125.108838
6406.602778,125.17078
6409.628889,125.034314
6415.267778,124.925916
6417.557778,124.720735
6417.91,124.975276
6418.309444,124.931723
6421.164722,124.841714
6423.240278,124.806872
6424.859722,124.771062
6426.685,124.82139
6429.112222,124.845586
6431.6175,124.788483
6432.871667,124.802033
6435.750833,124.779773
6439.026111,124.803001
6441.458889,124.867846
6441.557778,124.427479
6443.474444,124.930756
6445.946667,124.889138
6447.571667,124.900753
6449.645833,124.935595
6451.719444,124.933659
6457.0525,124.883331
6460.719722,124.866878
6463.611944,124.801065
6465.557778,124.470064
6465.670556,124.763319
6471.286944,124.682021
6474.051389,124.661696
6475.145,124.644275
6476.38,124.636533
6479.710556,124.662664
6483.849722,124.614272
6486.273333,124.567816
6487.914167,124.592012
6489.557778,124.394573
6489.967222,124.562009
6492.009722,124.522328
6493.619167,124.528135
6495.666944,124.701378
6499.536389,124.933659
6502.024722,125.124323
6503.670556,125.389511
6505.725278,125.688573
6513.557778,124.41393
6521.554167,127.081293
6525.816667,127.110328
6527.461111,127.135492
6530.306944,127.153881
6531.056667,127.242922
6533.488889,127.27099
6535.572778,127.299057
6537.557778,126.219917
6538.043056,127.275829
6540.056389,127.290346
6544.136667,127.398744
6546.353889,127.428747
6547.972222,127.462622
6548.802778,127.393905
6552.919722,127.29325
6554.961111,127.316478
6558.247778,127.383259
6560.297222,127.310671
6561.126111,127.271957
6561.557778,126.805459
6564.356111,127.27099
6565.984167,127.280668
6567.6075,127.314542
6570.306389,127.196466
6571.131667,127.143235
6572.738056,126.999027
6575.956389,127.094843
6577.1875,126.999027
6585.557778,126.669962
6586.674722,126.973863
6587.842778,126.985477
6590.281111,126.854819
6592.739167,126.844173
6593.534444,126.897404
6596.115,126.906114
6598.149722,126.964185
6600.184444,126.933214
6601.409444,127.016448
6609.5425,127.082261
6609.557778,126.350575
6611.874722,127.081293
6615.741389,127.157752
6618.083611,127.246794
6620.005833,127.203241
6620.826389,127.167431
6622.853889,127.124846
6626.865556,127.216791
6628.464167,127.160656
6630.920556,127.103553
6631.316111,127.05129
6633.557778,126.576081
6634.516111,127.061936
6635.218333,127.029998
6638.394167,127.036773
6639.624167,127.090004
6642.654167,126.973863
6643.053889,126.912889
6645.478333,126.920632
6648.718333,126.949667
6655.633056,126.915793
6657.557778,126.516075
6657.883056,126.97096
6662.382222,126.892565
6664.013333,126.83643
6667.016111,126.856755
6670.7225,126.915793
6671.508611,126.907082
6681.557778,126.337025
6690.509444,126.82288
6691.755556,126.906114
6696.513611,126.87224
6698.885556,126.852883
6700.400556,126.781263
6702.046389,126.767713
6705.557778,126.338961
6706.951111,126.703836
6708.997222,126.686415
6710.616389,126.677704
6712.663333,126.64383
6713.45,126.555757
6715.966111,126.52285
6718.493333,126.477362
6719.302778,126.492847
6722.988333,126.436713
6723.378611,126.429938
6726.244444,126.433809
6729.001389,126.458005
6729.557778,126.064095
6730.654722,126.456069
6731.884444,126.411549
6734.776667,126.391224
6736.833333,126.388321
6738.067778,126.417356
6741.061389,126.513172
6743.513333,126.625441
6753.231667,126.819977
6753.557778,126.076677
6755.218333,126.854819
6757.223889,126.820945
6758.849167,126.825784
6760.066944,126.804491
6762.186389,126.856755
6764.633333,126.75126
6771.965278,126.881918
6774.4075,127.116135
6777.233056,127.240987
6777.557778,126.351543
6778.881944,127.406487
6780.510278,127.496496
6782.841667,127.840079
6785.291667,128.03655
6786.721111,128.046228
6789.225833,128.118816
6791.780833,128.334644
6796.4225,128.588218
6797.712778,128.709198
6800.849444,128.774043
6801.557778,127.421005
6802.953611,128.901798
6805.3625,128.980193
6807.506389,129.053749
6808.813889,129.061491
6811.180833,129.013099
6813.703611,128.944383
6815.345,128.935672
6816.611667,128.861149
6817.416111,128.792432
6821.077222,128.753718
6821.491667,128.501113
6825.557778,128.558215
6829.43,128.323998
6831.108056,128.289156
6833.186944,128.203986
6835.549722,128.023
6837.645556,127.989126
6839.721944,127.908795
6842.642222,127.874921
