time,pressure
0.0,41.943909
0.016667,41.746524
0.033333,41.549143
0.05,41.154374
0.066667,40.956989
0.083333,40.759603
0.1,40.364838
0.116667,40.167453
0.133333,39.871378
0.15,39.575301
0.166667,39.180532
0.183333,38.884457
0.2,38.588381
0.216667,38.292301
0.233333,37.996226
0.25,37.601458
0.266667,37.305383
0.283333,37.107997
0.3,36.910613
0.316667,36.811922
0.333333,36.614537
0.35,36.515845
0.366667,36.515845
0.383333,36.515845
0.4,36.515845
0.416667,36.614537
0.433333,36.71323
0.45,36.811922
0.466667,37.009305
0.483333,37.107997
0.5,37.20669
0.516667,37.20669
0.533333,37.305383
0.55,37.700151
0.566667,38.193611
0.583333,38.588381
0.6,38.884457
0.616667,38.983147
0.633333,39.180532
0.65,39.377917
0.666667,39.673993
0.683333,39.871378
0.7,39.970068
0.716667,40.167453
0.733333,40.364838
0.75,40.562222
0.766667,40.759603
0.783333,40.858299
0.8,40.956989
0.816667,41.154374
0.833333,41.351759
0.85,41.549143
0.866667,41.647834
0.883333,41.746524
0.9,41.746524
0.916667,41.746524
0.933333,41.845219
0.95,41.943909
0.966667,42.042604
0.983333,42.239985
1.0,42.634755
1.016667,42.83214
1.033333,43.029524
1.05,43.226906
1.066667,43.424291
1.083333,43.522985
1.1,43.720366
1.116667,43.819061
1.133333,44.016445
1.15,44.115136
1.166667,44.312521
1.183333,44.509906
1.2,44.707287
1.216667,44.904672
1.233333,45.102057
1.25,45.200747
1.266667,45.398132
1.283333,45.496826
1.3,45.595518
1.316667,45.694208
1.333333,45.792903
1.35,45.891593
1.366667,45.990287
1.383333,46.088978
1.4,46.088978
1.416667,46.187668
1.433333,46.187668
1.45,46.286363
1.466667,46.286363
1.483333,46.385053
1.5,46.385053
1.516667,46.483747
1.533333,46.483747
1.55,46.582438
1.566667,46.582438
1.583333,46.582438
1.6,46.681128
1.616667,46.681128
1.633333,46.779824
1.65,46.779824
1.666667,46.779824
1.683333,46.878514
1.7,46.878514
1.716667,46.878514
1.733333,46.878514
1.75,46.977208
1.766667,46.977208
1.783333,46.977208
1.8,46.977208
1.816667,46.977208
1.833333,46.977208
1.85,46.977208
1.866667,46.977208
1.883333,46.977208
1.9,46.977208
1.916667,46.977208
1.933333,46.977208
1.95,46.878514
1.966667,46.878514
1.983333,46.878514
2.0,46.878514
2.016667,46.878514
2.033333,46.779824
2.05,46.779824
2.066667,46.779824
2.083333,46.779824
2.1,46.681128
2.116667,46.681128
2.133333,46.681128
2.15,46.681128
2.166667,46.681128
2.183333,46.779824
2.2,46.779824
2.216667,46.779824
2.233333,46.878514
2.25,46.878514
2.266667,46.878514
2.283333,46.878514
2.3,46.977208
2.316667,46.977208
2.333333,46.977208
2.35,47.075899
2.366667,47.075899
2.383333,47.075899
2.4,47.075899
2.416667,47.075899
2.433333,47.075899
2.45,47.075899
2.466667,47.075899
2.483333,47.075899
2.5,47.075899
2.516667,47.174589
2.533333,47.174589
2.55,47.174589
2.566667,47.174589
2.583333,47.174589
2.6,47.174589
2.616667,47.174589
2.633333,47.174589
2.65,47.174589
2.666667,47.174589
2.683333,47.174589
2.7,47.174589
2.716667,47.174589
2.733333,47.174589
2.75,47.174589
2.766667,47.174589
2.783333,47.174589
2.8,47.174589
2.816667,47.174589
2.833333,47.174589
2.85,47.075899
2.866667,47.075899
2.883333,47.075899
2.9,47.075899
2.916667,47.075899
2.933333,47.075899
2.95,47.075899
2.966667,47.075899
2.983333,47.075899
3.0,47.075899
3.016667,47.075899
3.033333,47.075899
3.05,47.075899
3.066667,47.075899
3.083333,47.075899
3.1,47.075899
3.116667,46.977208
3.133333,46.977208
3.15,46.977208
3.166667,46.977208
3.183333,46.977208
3.2,46.977208
3.216667,46.977208
3.233333,46.977208
3.25,46.977208
3.266667,46.977208
3.283333,46.977208
3.3,46.977208
3.316667,46.977208
3.333333,46.977208
3.35,46.977208
3.366667,46.977208
3.383333,46.977208
3.4,46.977208
3.416667,46.977208
3.433333,46.977208
3.45,46.977208
3.466667,46.977208
3.483333,46.977208
3.5,46.977208
3.516667,46.878514
3.533333,46.878514
3.55,46.878514
3.566667,46.878514
3.583333,46.878514
3.6,46.878514
3.616667,46.878514
3.633333,46.878514
3.65,46.779824
3.666667,46.779824
3.683333,46.779824
3.7,46.779824
3.716667,46.779824
3.733333,46.779824
3.75,46.779824
3.766667,46.779824
3.783333,46.779824
3.8,46.779824
3.816667,46.779824
3.833333,46.779824
3.85,46.779824
3.866667,46.779824
3.883333,46.779824
3.9,46.779824
3.916667,46.779824
3.933333,46.779824
3.95,46.779824
3.966667,46.779824
3.983333,46.779824
4.0,46.779824
4.016667,46.779824
4.033333,46.779824
4.05,46.779824
4.066667,46.779824
4.083333,46.779824
4.1,46.779824
4.116667,46.779824
4.133333,46.779824
4.15,46.779824
4.166667,46.779824
4.183333,46.779824
4.2,46.779824
4.216667,46.779824
4.233333,46.779824
4.25,46.779824
4.266667,46.779824
4.283333,46.779824
4.3,46.779824
4.316667,46.779824
4.333333,46.779824
4.35,46.779824
4.366667,46.779824
4.383333,46.681128
4.4,46.681128
4.416667,46.681128
4.433333,46.681128
4.45,46.681128
4.466667,46.681128
4.483333,46.681128
4.5,46.681128
4.516667,46.681128
4.533333,46.681128
4.55,46.582438
4.566667,46.582438
4.583333,46.582438
4.6,46.582438
4.616667,46.582438
4.633333,46.582438
4.65,46.582438
4.666667,46.582438
4.683333,46.483747
4.7,46.483747
4.716667,46.483747
4.733333,46.483747
4.75,46.483747
4.766667,46.483747
4.783333,46.483747
4.8,46.483747
4.816667,46.483747
4.833333,46.483747
4.85,46.483747
4.866667,46.483747
4.883333,46.483747
4.9,46.483747
4.916667,46.483747
4.933333,46.385053
4.95,46.385053
4.966667,46.385053
4.983333,46.385053
5.0,46.385053
5.016667,46.385053
5.033333,46.385053
5.05,46.385053
5.066667,46.385053
5.083333,46.385053
5.1,46.385053
5.116667,46.385053
5.133333,46.385053
5.15,46.385053
5.166667,46.385053
5.183333,46.385053
5.2,46.385053
5.216667,46.385053
5.233333,46.385053
5.25,46.385053
5.266667,46.385053
5.283333,46.385053
5.3,46.385053
5.316667,46.385053
5.333333,46.385053
5.35,46.385053
5.366667,46.385053
5.383333,46.385053
5.4,46.286363
5.416667,46.286363
5.433333,46.286363
5.45,46.286363
5.466667,46.286363
5.483333,46.286363
5.5,46.286363
5.516667,46.286363
5.533333,46.286363
5.55,46.286363
5.566667,46.286363
5.583333,46.286363
5.6,46.286363
5.616667,46.286363
5.633333,46.187668
5.65,46.187668
5.666667,46.187668
5.683333,46.187668
5.7,46.187668
5.716667,46.187668
5.733333,46.187668
5.75,46.187668
5.766667,46.187668
5.783333,46.088978
5.8,46.088978
5.816667,46.088978
5.833333,46.088978
5.85,46.088978
5.866667,46.088978
5.883333,46.088978
5.9,46.088978
5.916667,46.088978
5.933333,45.990287
5.95,45.990287
5.966667,45.990287
5.983333,45.990287
6.0,45.990287
6.016667,45.990287
6.033333,45.990287
6.05,45.990287
6.066667,45.990287
6.083333,45.891593
6.1,45.891593
6.116667,45.891593
6.133333,45.891593
6.15,45.891593
6.166667,45.891593
6.183333,45.891593
6.2,45.891593
6.216667,45.891593
6.233333,45.891593
6.25,45.891593
6.266667,45.891593
6.283333,45.891593
6.3,45.891593
6.316667,45.891593
6.333333,45.891593
6.35,45.891593
6.366667,45.891593
6.383333,45.891593
6.4,45.891593
6.416667,45.792903
6.433333,45.792903
6.45,45.792903
6.466667,45.792903
6.483333,45.792903
6.5,45.792903
6.516667,45.792903
6.533333,45.792903
6.55,45.792903
6.566667,45.792903
6.583333,45.792903
6.6,45.792903
6.616667,45.792903
6.633333,45.694208
6.65,45.694208
6.666667,45.694208
6.683333,45.694208
6.7,45.694208
6.716667,45.694208
6.733333,45.694208
6.75,45.694208
6.766667,45.694208
6.783333,45.595518
6.8,45.595518
6.816667,45.595518
6.833333,45.595518
6.85,45.595518
6.866667,45.595518
6.883333,45.595518
6.9,45.595518
6.916667,45.595518
6.933333,45.595518
6.95,45.496826
6.966667,45.496826
6.983333,45.496826
7.0,45.496826
7.016667,45.496826
7.033333,45.496826
7.05,45.496826
7.066667,45.496826
7.083333,45.496826
7.1,45.496826
7.116667,45.496826
7.133333,45.496826
7.15,45.496826
7.166667,45.496826
7.183333,45.496826
7.2,45.496826
7.216667,45.496826
7.233333,45.496826
7.25,45.496826
7.266667,45.496826
7.283333,45.496826
7.3,45.496826
7.316667,45.496826
7.333333,45.496826
7.35,45.496826
7.366667,45.496826
7.383333,45.398132
7.4,45.496826
7.416667,45.496826
7.433333,45.496826
7.45,45.496826
7.466667,45.496826
7.483333,45.496826
7.5,45.398132
7.516667,45.398132
7.533333,45.398132
7.55,45.398132
7.566667,45.496826
7.583333,45.398132
7.6,45.398132
7.616667,45.398132
7.633333,45.398132
7.65,45.398132
7.666667,45.398132
7.683333,45.398132
7.7,45.398132
7.716667,45.398132
7.733333,45.398132
7.75,45.398132
7.766667,45.398132
7.783333,45.398132
7.8,45.398132
7.816667,45.398132
7.833333,45.299442
7.85,45.299442
7.866667,45.299442
7.883333,45.299442
7.9,45.299442
7.916667,45.299442
7.933333,45.299442
7.95,45.299442
7.966667,45.299442
7.983333,45.299442
8.0,45.299442
8.016667,45.299442
8.033333,45.299442
8.05,45.299442
8.066667,45.299442
8.083333,45.299442
8.1,45.200747
8.116667,45.200747
8.133333,45.200747
8.15,45.200747
8.166667,45.200747
8.183333,45.200747
8.2,45.200747
8.216667,45.200747
8.233333,45.200747
8.25,45.200747
8.266667,45.200747
8.283333,45.200747
8.3,45.200747
8.316667,45.200747
8.333333,45.200747
8.35,45.200747
8.366667,45.200747
8.383333,45.200747
8.4,45.102057
8.416667,45.102057
8.433333,45.102057
8.45,45.102057
8.466667,45.102057
8.483333,45.102057
8.5,45.102057
8.516667,45.102057
8.533333,45.102057
8.55,45.102057
8.566667,45.102057
8.583333,45.102057
8.6,45.102057
8.616667,45.003366
8.633333,45.003366
8.65,45.003366
8.666667,45.003366
8.683333,45.003366
8.7,45.003366
8.716667,45.003366
8.733333,45.003366
8.75,45.003366
8.766667,45.003366
8.783333,45.003366
8.8,45.003366
8.816667,45.003366
8.833333,45.003366
8.85,45.003366
8.866667,45.003366
8.883333,45.003366
8.9,45.003366
8.916667,45.003366
8.933333,45.003366
8.95,45.003366
8.966667,44.904672
8.983333,44.904672
9.0,44.904672
9.016667,44.904672
9.033333,44.904672
9.05,44.904672
9.066667,44.904672
9.083333,44.904672
9.1,44.904672
9.116667,44.904672
9.133333,44.904672
9.15,44.904672
9.166667,44.904672
9.183333,44.904672
9.2,44.904672
9.216667,44.805982
9.233333,44.805982
9.25,44.805982
9.266667,44.805982
9.283333,44.805982
9.3,44.805982
9.316667,44.805982
9.333333,44.805982
9.35,44.805982
9.366667,44.805982
9.383333,44.805982
9.4,44.805982
9.416667,44.805982
9.433333,44.805982
9.45,44.805982
9.466667,44.805982
9.483333,44.805982
9.5,44.805982
9.516667,44.805982
9.533333,44.805982
9.55,44.805982
9.566667,44.805982
9.583333,44.805982
9.6,44.805982
9.616667,44.805982
9.633333,44.805982
9.65,44.805982
9.666667,44.805982
9.683333,44.805982
9.7,44.805982
9.716667,44.805982
9.733333,44.805982
9.75,44.805982
9.766667,44.805982
9.783333,44.805982
9.8,44.805982
9.816667,44.805982
9.833333,44.805982
9.85,44.707287
9.866667,44.707287
9.883333,44.707287
9.9,44.707287
9.916667,44.707287
9.933333,44.707287
9.95,44.707287
9.966667,44.707287
9.983333,44.707287
10.0,44.707287
10.016667,44.707287
10.033333,44.608597
10.05,44.608597
10.066667,44.608597
10.083333,44.608597
10.1,44.608597
10.116667,44.608597
10.133333,44.608597
10.15,44.608597
10.166667,44.608597
10.183333,44.608597
10.2,44.608597
10.216667,44.509906
10.233333,44.509906
10.25,44.509906
10.266667,44.509906
10.283333,44.509906
10.3,44.509906
10.316667,44.509906
10.333333,44.509906
10.35,44.509906
10.366667,44.509906
10.383333,44.509906
10.4,44.509906
10.416667,44.509906
10.433333,44.509906
10.45,44.509906
10.466667,44.509906
10.483333,44.509906
10.5,44.509906
10.516667,44.509906
10.533333,44.509906
10.55,44.509906
10.566667,44.509906
10.583333,44.509906
10.6,44.509906
10.616667,44.509906
10.633333,44.509906
10.65,44.509906
10.666667,44.509906
10.683333,44.509906
10.7,44.509906
10.716667,44.509906
10.733333,44.509906
10.75,44.509906
10.766667,44.509906
10.783333,44.509906
10.8,44.509906
10.816667,44.509906
10.833333,44.509906
10.85,44.509906
10.866667,44.509906
10.883333,44.509906
10.9,44.509906
10.916667,44.509906
10.933333,44.509906
10.95,44.509906
10.966667,44.509906
10.983333,44.509906
11.0,44.509906
11.016667,44.509906
11.033333,44.509906
11.05,44.509906
11.066667,44.509906
11.083333,44.509906
11.1,44.509906
11.116667,44.411212
11.133333,44.411212
11.15,44.411212
11.166667,44.411212
11.183333,44.411212
11.2,44.411212
11.216667,44.411212
11.233333,44.411212
11.25,44.312521
11.266667,44.312521
11.283333,44.312521
11.3,44.312521
11.316667,44.312521
11.333333,44.312521
11.35,44.213826
11.366667,44.213826
11.383333,44.213826
11.4,44.213826
11.416667,44.213826
11.433333,44.213826
11.45,44.213826
11.466667,44.213826
11.483333,44.115136
11.5,44.115136
11.516667,44.115136
11.533333,44.115136
11.55,44.115136
11.566667,44.115136
11.583333,44.115136
11.6,44.115136
11.616667,44.115136
11.633333,44.016445
11.65,44.016445
11.666667,44.016445
11.683333,44.016445
11.7,44.016445
11.716667,44.016445
11.733333,44.016445
11.75,44.016445
11.766667,44.016445
11.783333,44.016445
11.8,44.016445
11.816667,44.016445
11.833333,43.917751
11.85,43.917751
11.866667,43.917751
11.883333,43.917751
11.9,43.917751
11.916667,43.917751
11.933333,43.917751
11.95,43.917751
11.966667,43.917751
11.983333,43.917751
12.0,43.917751
12.016667,43.917751
12.033333,43.917751
12.05,43.917751
12.066667,43.917751
12.083333,43.917751
12.1,43.917751
12.116667,43.917751
12.133333,43.917751
12.15,44.016445
12.166667,44.016445
12.183333,44.016445
12.2,44.016445
12.216667,44.016445
12.233333,44.016445
12.25,44.115136
12.266667,44.115136
12.283333,44.115136
12.3,44.115136
12.316667,44.115136
12.333333,44.115136
12.35,44.115136
12.366667,44.213826
12.383333,44.213826
12.4,44.213826
12.416667,44.213826
12.433333,44.213826
12.45,44.213826
12.466667,44.213826
12.483333,44.213826
12.5,44.213826
12.516667,44.213826
12.533333,44.213826
12.55,44.312521
12.566667,44.213826
12.583333,44.213826
12.6,44.213826
12.616667,44.312521
12.633333,44.312521
12.65,44.312521
12.666667,44.213826
12.683333,44.213826
12.7,44.213826
12.716667,44.213826
12.733333,44.213826
12.75,44.213826
12.766667,44.213826
12.783333,44.213826
12.8,44.213826
12.816667,44.213826
12.833333,44.213826
12.85,44.213826
12.866667,44.213826
12.883333,44.115136
12.9,44.115136
12.916667,44.115136
12.933333,44.115136
12.95,44.115136
12.966667,44.115136
12.983333,44.115136
13.0,44.016445
13.016667,44.016445
13.033333,44.016445
13.05,44.016445
13.066667,44.016445
13.083333,43.917751
13.1,43.917751
13.116667,43.917751
13.133333,43.917751
13.15,43.819061
13.166667,43.819061
13.183333,43.819061
13.2,43.819061
13.216667,43.720366
13.233333,43.720366
13.25,43.720366
13.266667,43.720366
13.283333,43.720366
13.3,43.720366
13.316667,43.621676
13.333333,43.621676
13.35,43.621676
13.366667,43.621676
13.383333,43.621676
13.4,43.621676
13.416667,43.621676
13.433333,43.621676
13.45,43.621676
13.466667,43.621676
13.483333,43.522985
13.5,43.522985
13.516667,43.522985
13.533333,43.522985
13.55,43.522985
13.566667,43.522985
13.583333,43.522985
13.6,43.522985
13.616667,43.522985
13.633333,43.522985
13.65,43.621676
13.666667,43.621676
13.683333,43.621676
13.7,43.621676
13.716667,43.621676
13.733333,43.621676
13.75,43.621676
13.766667,43.621676
13.783333,43.621676
13.8,43.720366
13.816667,43.720366
13.833333,43.720366
13.85,43.720366
13.866667,43.720366
13.883333,43.720366
13.9,43.819061
13.916667,43.819061
13.933333,43.819061
13.95,43.819061
13.966667,43.819061
13.983333,43.819061
14.0,43.917751
14.016667,43.917751
14.033333,43.917751
14.05,43.917751
14.066667,43.917751
14.083333,44.016445
14.1,44.016445
14.116667,44.016445
14.133333,44.016445
14.15,44.016445
14.166667,44.016445
14.183333,44.016445
14.2,44.016445
14.216667,44.115136
14.233333,44.115136
14.25,44.115136
14.266667,44.115136
14.283333,44.115136
14.3,44.115136
14.316667,44.115136
14.333333,44.115136
14.35,44.115136
14.366667,44.115136
14.383333,44.115136
14.4,44.115136
14.416667,44.115136
14.433333,44.115136
14.45,44.016445
14.466667,44.016445
14.483333,44.016445
14.5,44.016445
14.516667,44.016445
14.533333,44.016445
14.55,44.016445
14.566667,44.016445
14.583333,43.917751
14.6,43.917751
14.616667,43.917751
14.633333,43.917751
14.65,43.917751
14.666667,43.819061
14.683333,43.819061
14.7,43.819061
14.716667,43.819061
14.733333,43.819061
14.75,43.720366
14.766667,43.720366
14.783333,43.720366
14.8,43.720366
14.816667,43.621676
14.833333,43.621676
14.85,43.621676
14.866667,43.621676
14.883333,43.522985
14.9,43.522985
14.916667,43.522985
14.933333,43.522985
14.95,43.424291
14.966667,43.424291
14.983333,43.424291
15.0,43.424291
15.016667,43.325601
15.033333,43.325601
15.05,43.325601
15.066667,43.325601
15.083333,43.325601
15.1,43.226906
15.116667,43.226906
15.133333,43.226906
15.15,43.226906
15.166667,43.226906
15.183333,43.226906
15.2,43.226906
15.216667,43.226906
15.233333,43.226906
15.25,43.226906
15.266667,43.226906
15.283333,43.226906
15.3,43.226906
15.316667,43.226906
15.333333,43.226906
15.35,43.226906
15.366667,43.226906
15.383333,43.226906
15.4,43.325601
15.416667,43.325601
15.433333,43.325601
15.45,43.325601
15.466667,43.325601
15.483333,43.325601
15.5,43.424291
15.516667,43.424291
15.533333,43.424291
15.55,43.522985
15.566667,43.522985
15.583333,43.522985
15.6,43.522985
15.616667,43.621676
15.633333,43.621676
15.65,43.621676
15.666667,43.720366
15.683333,43.720366
15.7,43.720366
15.716667,43.720366
15.733333,43.819061
15.75,43.819061
15.766667,43.819061
15.783333,43.819061
15.8,43.917751
15.816667,43.917751
15.833333,43.917751
15.85,43.917751
15.866667,43.917751
15.883333,44.016445
15.9,44.016445
15.916667,44.016445
15.933333,44.016445
15.95,44.016445
15.966667,44.016445
15.983333,44.016445
16.0,44.016445
16.016667,44.016445
16.033333,44.016445
16.05,44.016445
16.066667,44.016445
16.083333,44.016445
16.1,44.016445
16.116667,44.016445
16.133333,44.016445
16.15,44.016445
16.166667,44.016445
16.183333,44.016445
16.2,44.016445
16.216667,44.016445
16.233333,43.917751
16.25,43.917751
16.266667,43.917751
16.283333,43.917751
16.3,43.917751
16.316667,43.917751
16.333333,43.917751
16.35,43.819061
16.366667,43.819061
16.383333,43.819061
16.4,43.819061
16.416667,43.819061
16.433333,43.720366
16.45,43.720366
16.466667,43.720366
16.483333,43.720366
16.5,43.720366
16.516667,43.720366
16.533333,43.621676
16.55,43.621676
16.566667,43.621676
16.583333,43.621676
16.6,43.522985
16.616667,43.522985
16.633333,43.522985
16.65,43.522985
16.666667,43.522985
16.683333,43.424291
16.7,43.424291
16.716667,43.424291
16.733333,43.424291
16.75,43.325601
16.766667,43.325601
16.783333,43.325601
16.8,43.325601
16.816667,43.226906
16.833333,43.226906
16.85,43.226906
16.866667,43.226906
16.883333,43.226906
16.9,43.128215
16.916667,43.128215
16.933333,43.128215
16.95,43.128215
16.966667,43.128215
16.983333,43.128215
17.0,43.128215
17.016667,43.029524
17.033333,43.029524
17.05,43.029524
17.066667,43.029524
17.083333,43.029524
17.1,43.029524
17.116667,43.029524
17.133333,43.029524
17.15,43.029524
17.166667,43.029524
17.183333,43.029524
17.2,43.029524
17.216667,43.029524
17.233333,43.029524
17.25,43.029524
17.266667,43.029524
17.283333,43.029524
17.3,43.128215
17.316667,43.128215
17.333333,43.128215
17.35,43.128215
17.366667,43.128215
17.383333,43.226906
17.4,43.226906
17.416667,43.226906
17.433333,43.226906
17.45,43.226906
17.466667,43.325601
17.483333,43.325601
17.5,43.325601
17.516667,43.325601
17.533333,43.424291
17.55,43.424291
17.566667,43.424291
17.583333,43.522985
17.6,43.522985
17.616667,43.522985
17.633333,43.522985
17.65,43.621676
17.666667,43.621676
17.683333,43.621676
17.7,43.621676
17.716667,43.621676
17.733333,43.720366
17.75,43.720366
17.766667,43.720366
17.783333,43.720366
17.8,43.720366
17.816667,43.720366
17.833333,43.720366
17.85,43.819061
17.866667,43.819061
17.883333,43.819061
17.9,43.819061
17.916667,43.819061
17.933333,43.819061
17.95,43.819061
17.966667,43.819061
17.983333,43.819061
18.0,43.819061
18.016667,43.819061
18.033333,43.819061
18.05,43.819061
18.066667,43.819061
18.083333,43.720366
18.1,43.720366
18.116667,43.720366
18.133333,43.720366
18.15,43.720366
18.166667,43.720366
18.183333,43.720366
18.2,43.621676
18.216667,43.621676
18.233333,43.621676
18.25,43.621676
18.266667,43.621676
18.283333,43.621676
18.3,43.522985
18.316667,43.522985
18.333333,43.522985
18.35,43.522985
18.366667,43.522985
18.383333,43.522985
18.4,43.424291
18.416667,43.424291
18.433333,43.424291
18.45,43.424291
18.466667,43.424291
18.483333,43.325601
18.5,43.325601
18.516667,43.325601
18.533333,43.325601
