time,pressure
0.0,140.744337
0.01,140.679125
0.02,140.664418
0.03,140.656797
0.04,140.651741
0.05,140.647988
0.06,140.644993
0.07,140.642504
0.08,140.640359
0.09,140.638456
0.101111,140.636602
0.113333,140.634751
0.127222,140.632832
0.142778,140.630841
0.16,140.628842
0.179444,140.626747
0.201389,140.624574
0.226111,140.622309
0.253611,140.619943
0.284722,140.617471
0.319444,140.614885
0.358333,140.612181
0.401944,140.609356
0.451111,140.606404
0.506111,140.603322
0.567778,140.600108
0.637222,140.596758
0.715,140.593274
0.802222,140.589641
0.9,140.585856
1.009722,140.581853
1.133056,140.577753
1.271389,140.573613
1.426389,140.569063
1.600556,140.564399
1.795833,140.559651
2.014722,140.554605
2.260833,140.549371
2.536667,140.543916
2.846111,140.538226
3.193333,140.532291
3.583056,140.526097
4.020278,140.519632
4.510556,140.512884
5.061111,140.505842
5.678611,140.498495
6.371389,140.490834
7.148889,140.482853
8.021389,140.474546
9.0,140.465913
10.098056,140.456953
11.330278,140.44767
12.712778,140.438068
14.264167,140.428157
16.004444,140.417946
17.957222,140.407446
20.148611,140.39667
22.606944,140.385634
23.303611,140.382683
24.0,140.379804
24.01,140.382371
24.02,140.382919
24.03,140.383183
24.044167,140.383393
24.064722,140.383562
24.095,140.383686
24.139167,140.383759
24.204444,140.383773
24.3,140.383706
24.440278,140.38351
24.646389,140.383112
24.948611,140.382401
25.3925,140.381217
26.043889,140.379346
27.0,140.376485
28.403333,140.372241
30.463333,140.366113
33.486944,140.357509
37.924722,140.345785
44.438889,140.330343
46.219444,140.326441
48.0,140.322663
48.01,140.318729
48.02,140.317826
48.03,140.317347
48.044167,140.316918
48.064722,140.316495
48.095,140.316061
48.139167,140.315587
48.204444,140.315034
48.3,140.314355
48.440278,140.313508
48.646389,140.31244
48.948611,140.31108
49.3925,140.309332
50.043889,140.307045
51.0,140.304027
52.403333,140.3
54.463333,140.294604
57.486944,140.287384
61.924722,140.2778
68.438889,140.26526
70.219444,140.262079
72.0,140.25899
72.01,140.257669
72.02,140.257357
72.03,140.257188
72.044167,140.25703
72.064722,140.256868
72.095,140.256693
72.139167,140.25649
72.204444,140.25624
72.3,140.255917
72.440278,140.255493
72.646389,140.25493
72.948611,140.254173
73.3925,140.253148
74.043889,140.25174
75.0,140.249798
76.403333,140.247102
78.463333,140.24336
81.486944,140.238188
85.924722,140.231105
92.438889,140.22154
94.219444,140.219069
96.0,140.216652
96.01,140.217942
96.02,140.218223
96.03,140.218362
96.044167,140.218477
96.064722,140.218576
96.095,140.218659
96.139167,140.218726
96.204444,140.218778
96.3,140.21881
96.440278,140.218808
96.646389,140.218747
96.948611,140.218591
97.3925,140.218283
98.043889,140.217748
99.0,140.21687
100.403333,140.21549
102.463333,140.21338
105.486944,140.21023
109.924722,140.20562
116.438889,140.199025
118.219444,140.197267
120.0,140.195529
120.01,140.196824
120.02,140.197108
120.03,140.197251
120.044167,140.197371
120.064722,140.197478
120.095,140.197572
120.139167,140.197656
120.204444,140.197732
120.3,140.197799
120.440278,140.197849
120.646389,140.197864
120.948611,140.197817
121.3925,140.19767
122.043889,140.197367
123.0,140.196823
124.403333,140.19592
126.463333,140.194482
129.486944,140.192263
133.924722,140.188917
140.438889,140.183989
142.219444,140.182653
144.0,140.181324
144.01,140.182621
144.02,140.182907
144.03,140.183052
144.044167,140.183175
144.064722,140.183287
144.095,140.183388
144.139167,140.183482
144.204444,140.183572
144.3,140.183661
144.440278,140.183742
144.646389,140.183803
144.948611,140.183825
145.3925,140.183776
146.043889,140.183616
147.0,140.183279
148.403333,140.182674
150.463333,140.181662
153.486944,140.180043
157.924722,140.177529
164.438889,140.173729
166.219444,140.172683
168.0,140.171638
168.01,140.170328
168.02,140.170028
168.03,140.16987
168.044167,140.169728
168.064722,140.169589
168.095,140.169448
168.139167,140.169295
168.204444,140.169117
168.3,140.168901
168.440278,140.168634
168.646389,140.168299
168.948611,140.167876
169.3925,140.167336
170.043889,140.166633
171.0,140.165705
172.403333,140.164461
174.463333,140.162773
177.486944,140.160463
181.924722,140.157288
188.438889,140.152918
198.0,140.146917
212.033889,140.138742
227.385,140.130459
242.735833,140.122737
258.086667,140.115493
273.437778,140.108667
288.788611,140.10221
304.139722,140.096082
308.069722,140.094563
312.0,140.093062
312.01,140.091754
312.02,140.091456
312.03,140.0913
312.044167,140.091161
312.064722,140.091026
312.095,140.090891
312.139167,140.090748
312.204444,140.090584
312.3,140.090387
312.440278,140.090149
312.646389,140.089857
312.948611,140.089497
313.3925,140.089049
314.043889,140.088481
315.0,140.087753
316.403333,140.086802
318.463333,140.085544
321.486944,140.083865
325.924722,140.081609
332.438889,140.078565
342.0,140.074448
356.033889,140.068875
371.385,140.063214
386.735833,140.057892
402.086667,140.052844
417.437778,140.04803
432.788611,140.043421
448.139722,140.038995
463.490556,140.034736
478.841389,140.030629
494.1925,140.026662
509.543333,140.022825
524.894167,140.019109
540.245278,140.015505
555.596111,140.012007
570.946944,140.008609
586.298056,140.005304
601.648889,140.002087
617.0,139.998954
632.350833,139.9959
647.701667,139.992921
663.052778,139.990014
678.403611,139.987175
693.754444,139.9844
709.105556,139.981687
724.456389,139.979034
739.807222,139.976437
755.158333,139.973894
770.509167,139.971403
785.860278,139.968961
801.211111,139.966568
816.561944,139.964221
831.913056,139.961917
835.956389,139.961318
840.0,139.960721
840.01,139.916376
840.02,139.906373
840.03,139.901189
840.044167,139.896647
840.064722,139.892338
840.095,139.888131
840.139167,139.883805
840.204444,139.879064
840.3,139.873613
840.440278,139.867289
840.646389,139.859982
840.948611,139.851587
841.3925,139.842004
842.043889,139.830968
843.0,139.818299
844.403333,139.803663
846.463333,139.786729
849.486944,139.767244
853.924722,139.745113
860.438889,139.720413
862.219444,139.714714
864.0,139.709356
864.01,139.708023
864.02,139.707699
864.03,139.707518
864.044167,139.707343
864.064722,139.707157
864.095,139.706945
864.139167,139.706689
864.204444,139.70636
864.3,139.705923
864.440278,139.705333
864.646389,139.704528
864.948611,139.703421
865.3925,139.701892
866.043889,139.699767
867.0,139.696816
868.403333,139.692728
870.463333,139.687114
873.486944,139.679513
877.924722,139.669423
884.438889,139.656359
894.0,139.639919
908.033889,139.619834
923.385,139.601567
938.735833,139.585955
954.086667,139.572261
969.437778,139.560025
976.718889,139.554636
984.0,139.549479
984.01,139.548168
984.02,139.547867
984.03,139.547708
984.044167,139.547564
984.064722,139.547423
984.095,139.547279
984.139167,139.547121
984.204444,139.546937
984.3,139.546711
984.440278,139.546428
984.646389,139.546072
984.948611,139.545617
985.3925,139.545032
986.043889,139.544263
987.0,139.54324
988.403333,139.541863
990.463333,139.539988
993.486944,139.537422
997.924722,139.533903
1004.438889,139.529084
1014.0,139.522514
1028.033889,139.51363
1043.385,139.504678
1058.735833,139.496352
1074.086667,139.488541
1089.437778,139.481169
1096.718889,139.477808
1104.0,139.474527
1104.01,139.478435
1104.02,139.479313
1104.03,139.479766
1104.044167,139.48016
1104.064722,139.480531
1104.095,139.480888
1104.139167,139.48125
1104.204444,139.481638
1104.3,139.482075
1104.440278,139.482569
1104.646389,139.48312
1104.948611,139.483722
1105.3925,139.484365
1106.043889,139.485042
1107.0,139.485725
1108.403333,139.486381
1110.463333,139.486946
1113.486944,139.487314
1117.924722,139.487304
1124.438889,139.486649
1134.0,139.484972
1148.033889,139.481777
1163.385,139.477833
1178.735833,139.473697
1194.086667,139.469496
1209.437778,139.465294
1216.718889,139.46331
1224.0,139.461337
1224.01,139.46003
1224.02,139.459733
1224.03,139.459578
1224.044167,139.459441
1224.064722,139.459309
1224.095,139.459177
1224.139167,139.459038
1224.204444,139.458881
1224.3,139.458695
1224.440278,139.458472
1224.646389,139.458202
1224.948611,139.457875
1225.3925,139.457475
1226.043889,139.456978
1227.0,139.456351
1228.403333,139.455549
1230.463333,139.454506
1233.486944,139.453134
1237.924722,139.451316
1244.438889,139.448884
1254.0,139.445607
1268.033889,139.441153
1283.385,139.436576
1298.735833,139.432211
1314.086667,139.428009
1329.437778,139.423942
1336.718889,139.422055
1344.0,139.420192
1344.01,139.422798
1344.02,139.423384
1344.03,139.423686
1344.044167,139.42395
1344.064722,139.424198
1344.095,139.424437
1344.139167,139.42468
1344.204444,139.424942
1344.3,139.425237
1344.440278,139.425573
1344.646389,139.425948
1344.948611,139.426363
1345.3925,139.42681
1346.043889,139.427289
1347.0,139.427784
1348.403333,139.428278
1350.463333,139.428738
1353.486944,139.4291
1357.924722,139.429259
1364.438889,139.429048
1370.0,139.428625
