time,pressure
0.0,271.242644
0.142778,271.452665
0.255,271.332653
0.400556,271.193284
0.516389,270.032845
0.665,266.5825
0.778056,263.682855
0.857778,261.993009
0.985556,258.532986
1.129167,255.102965
1.273333,251.832638
1.388889,249.623062
1.533611,246.232723
1.678056,243.07273
1.792222,240.872832
1.95,238.072875
2.065556,235.353248
2.210556,232.94333
2.329444,230.423078
2.442778,228.313189
2.531389,226.912727
2.674167,224.36344
2.817778,221.873191
2.945556,219.652969
3.059444,218.113137
3.174444,216.853011
3.269167,215.753546
3.414722,214.083057
3.531389,212.683562
3.675556,211.033397
3.793056,209.662937
3.922222,208.132784
4.031944,207.012995
4.133333,205.722866
4.245556,204.663082
4.389722,202.903552
4.534167,201.733435
4.648333,200.193603
4.793611,198.693453
4.926111,197.392678
5.039722,196.212883
5.129444,195.342796
5.273333,194.093316
5.420556,192.553484
5.533611,191.383367
5.679722,190.023554
5.793611,188.973449
5.951389,187.593311
6.065556,186.432872
6.208333,185.133065
6.3225,184.08296
6.436667,183.043501
6.526944,182.363111
6.641111,181.243321
6.73,180.543574
6.874167,179.212795
7.001389,178.153012
7.136944,176.862883
7.281944,175.683088
7.3975,174.673632
7.540556,173.492869
7.683611,172.333398
7.796667,171.38298
7.954722,170.163503
8.064444,169.23341
8.21,168.132978
8.323611,167.373224
8.4725,166.122777
8.591111,165.223655
8.737222,164.1329
8.882778,163.153448
9.0125,162.183673
9.1275,161.373592
9.240833,160.753208
9.329167,160.083463
9.4725,159.013034
9.615556,158.043259
9.730556,157.362869
9.876111,156.333088
10.004444,155.493004
10.146667,154.60356
10.263611,153.863164
10.379167,153.233101
10.523333,152.313654
10.669722,151.402918
10.789444,150.57348
10.951111,149.583381
11.061389,149.653065
11.208889,152.523675
11.327778,154.682923
11.476389,157.35319
11.594167,159.02368
11.737222,161.683301
11.854722,163.502837
12.002778,165.733706
12.125556,167.613248
12.2775,169.732815
12.400278,171.363623
12.558333,173.462866
12.669444,174.773319
12.790278,176.453487
12.949444,178.363033
13.066944,179.70349
13.211111,181.373012
13.324444,182.623459
13.469444,184.133288
13.5825,185.292758
13.725,186.702899
13.867778,187.852692
13.994444,189.273479
14.134167,190.51328
14.248333,191.552739
14.3975,192.83319
14.515,193.682952
14.657222,194.952757
14.804722,196.062868
14.937222,197.043288
15.0425,197.823366
15.131389,198.463108
15.277222,199.383522
15.420278,200.422981
15.528056,201.092725
15.675,202.033465
15.791944,202.733212
15.951667,203.753314
16.065278,204.393055
16.211944,205.193458
16.358889,206.003539
16.468611,206.583274
16.617778,207.283022
16.731389,207.823076
16.875833,208.603154
17.015,209.26322
17.105278,209.643581
17.191667,210.062655
17.334444,210.673361
17.485556,211.322781
17.603333,211.772826
17.751944,212.303201
17.875833,212.852934
18.006389,213.323303
18.141944,213.833354
18.254444,214.24275
18.404167,214.812807
18.519167,215.172843
18.764444,215.982924
18.839167,216.21327
18.962778,216.603309
19.08,216.94302
19.201944,217.323381
19.350278,217.743423
19.465833,218.032807
19.611111,218.493498
19.724722,218.823531
19.869167,219.163242
19.995556,219.463272
20.130278,219.853311
20.273611,220.172698
20.388611,220.433047
20.532778,220.802761
20.676667,221.123116
20.789722,221.402821
20.948889,221.713497
21.068333,221.942875
21.220833,222.253551
21.33,222.503254
21.478056,222.773281
21.591667,222.99298
21.734722,223.253329
21.877222,223.523356
22.005,223.752733
22.153611,223.992757
22.271389,224.232781
22.415556,222.953299
22.530833,219.802984
22.673611,216.033252
22.815833,212.573228
22.943889,209.623256
23.057222,207.573373
23.202222,204.063022
23.315,201.793441
23.458056,198.973159
23.601111,196.572919
23.863889,191.773406
23.994444,189.622869
24.130833,187.563308
24.273889,185.322761
24.388056,184.003597
24.530556,181.823057
24.674722,179.583478
24.789444,177.972994
24.948611,175.88343
25.060833,174.503292
25.203333,172.862806
25.346389,171.273614
25.459167,169.75314
25.603889,168.363323
25.7175,166.773164
25.865556,165.213008
25.992222,163.853195
26.126667,162.483703
26.269722,161.133568
26.384444,159.913124
26.529167,158.55331
26.673333,157.253503
26.788889,156.10371
26.949444,154.643242
27.061667,153.632818
27.203889,152.42302
27.348056,151.263549
27.465,150.442822
27.610278,149.253348
27.733889,148.323255
27.886667,147.123135
28.0125,146.123358
28.126111,145.333601
28.271111,144.323177
28.418333,143.293397
28.5225,142.613006
28.665278,141.622907
28.808333,140.583449
28.938889,139.823695
29.031667,139.053296
29.135833,138.552923
29.250833,137.57347
29.394167,136.623053
29.537222,135.703606
29.650278,134.903203
29.793056,133.963432
29.951389,133.123348
30.068333,132.17293
30.212778,131.263162
30.325278,130.553736
30.471389,129.683649
30.613611,128.832919
30.725556,128.173821
30.873889,127.303734
31.001667,126.703674
31.139167,125.813262
31.255556,125.203524
31.3975,124.423446
31.544444,123.713052
31.656389,123.123638
31.800556,122.323236
31.960278,121.523801
32.073333,120.963422
32.2175,120.233672
32.335556,119.703296
32.4825,118.963867
32.602222,118.453816
32.751111,117.733744
32.873889,117.283699
33.0175,116.543303
33.103333,116.123261
33.2125,115.653859
33.336389,115.203814
33.493611,114.423736
33.6025,113.933042
33.746667,113.2933
33.863056,112.743568
34.023889,112.023496
34.128056,111.483442
34.274167,110.883382
34.389167,110.273644
34.533333,109.632934
34.677778,108.953512
34.793889,108.453139
34.959444,107.703064
35.082222,107.203659
35.203889,106.652959
35.347222,106.023864
35.463889,105.533169
35.612778,104.893428
35.724722,104.383377
35.866944,103.783317
35.992778,103.273266
36.128611,102.683852
36.272778,102.093471
36.387778,101.603744
36.529444,101.123696
36.671944,100.433627
36.785833,99.993261
36.943611,99.403847
37.057778,98.923799
37.201389,98.36342
37.317222,97.903697
37.458889,97.373321
37.601111,96.833267
37.750556,96.303859
37.845833,95.893496
37.934722,95.543138
38.0925,94.953724
38.182222,94.603367
38.331111,94.093316
38.448611,93.643271
38.593889,93.053857
38.709722,92.803187
38.859167,92.143121
38.989722,91.613713
39.126111,91.193671
39.243611,90.68362
39.388889,90.153244
39.533889,89.65384
39.679444,89.093461
39.794444,88.683097
39.955556,88.203049
40.061111,87.733648
40.205556,87.293281
40.319722,86.813233
40.469444,86.303182
40.586389,85.853137
40.734444,85.313083
40.8525,84.893041
40.983056,84.443964
41.132222,83.933913
41.248056,83.543874
41.4,83.153835
41.518333,82.613781
41.664722,82.093084
41.780556,81.713691
41.940833,81.143634
42.055,80.763273
42.205833,80.393559
42.351389,79.863183
42.530556,79.263123
42.708889,78.673709
42.856944,78.253667
42.990278,77.813301
43.136389,77.393259
43.259167,77.113553
43.406111,76.723514
43.521667,76.293794
43.671111,75.843749
43.784722,75.543719
43.944722,75.083028
44.066111,74.843972
44.212778,74.373602
44.334722,74.043569
44.483056,73.633205
44.589444,73.413506
44.734722,72.983785
44.853889,72.693434
44.984722,72.363401
45.130556,71.98304
45.278889,71.623972
45.393889,71.353945
45.54,70.963906
45.657222,70.713236
45.779167,70.393849
45.946944,69.943804
46.061667,69.70378
46.207778,69.323419
46.322222,69.123077
46.4675,68.693356
46.615556,68.33332
46.723611,68.093296
46.870278,67.77391
47.003611,67.393549
47.123333,67.123522
47.237778,66.923179
47.328056,66.643474
47.475,66.223432
47.595833,65.923402
47.747222,65.553688
47.865278,65.303985
47.995278,64.963306
48.141111,64.60327
48.260833,64.313886
48.386667,63.943204
48.533889,63.483481
48.649722,63.233778
48.794444,62.883421
48.923889,62.433376
49.03,62.123667
49.120556,61.893322
49.238333,61.543932
49.329722,61.283583
49.475833,60.833538
49.591944,60.513184
49.736667,60.093142
49.887778,59.773755
50.021111,59.263704
50.136944,58.953995
50.285556,58.533953
50.391944,58.243602
50.537222,57.82356
50.652222,57.503205
50.800833,57.073485
50.934167,56.733773
51.051111,56.363091
51.196389,55.963374
51.346667,55.50365
51.460833,55.233623
51.606389,54.82326
51.723056,54.493227
51.87,54.113834
52.000556,53.753798
52.138056,53.413119
52.254444,53.113089
52.4,52.784024
52.516389,52.523675
52.663056,52.183964
52.782778,54.413864
52.943611,57.30383
53.061111,59.443722
53.21,62.053983
53.324167,64.053538
53.471667,65.863396
53.618611,64.633273
53.726389,63.723505
53.871667,62.633718
54.001667,61.663944
54.148333,60.773532
54.267778,59.823115
54.419167,58.933671
54.526944,58.343289
54.673333,57.193497
54.788056,56.253725
54.948611,55.173617
55.063056,54.47387
55.213889,53.633786
55.330278,53.093732
55.4775,52.453991
55.591944,51.953618
55.736111,51.353558
55.881667,50.783501
56.003056,50.323778
56.121111,49.834051
56.268056,49.483694
56.386944,49.123658
56.531389,48.623285
56.648333,48.243892
56.7925,47.783201
56.953056,47.303153
57.074722,46.913114
57.1925,46.573403
57.339444,46.123358
57.473056,45.733319
57.590556,45.353926
57.743889,44.913559
57.863611,44.593205
57.996944,44.22349
58.109167,45.553301
58.116944,45.64331
58.266944,47.013769
58.385,46.473715
58.539722,45.793325
58.585,45.633631
58.629722,45.443935
58.639167,45.403286
58.712222,45.103256
58.862222,45.453613
58.991944,45.633631
59.131944,45.883334
59.139722,45.863977
59.253889,45.573625
59.4,45.59395
59.517778,45.753643
59.668611,46.573403
59.784167,48.393907
59.940833,50.683814
60.065556,52.983398
60.193333,54.993599
60.308889,56.833461
60.400278,58.333611
60.548333,60.543187
60.675,62.264004
60.797778,64.133868
60.959444,64.793934
61.07,63.493159
61.188611,62.32401
61.34,60.603193
61.460833,59.593737
61.618056,58.023902
61.736111,59.743752
61.881667,62.183673
62.001667,64.163871
62.126111,66.053092
62.274444,64.363246
62.404444,63.173772
62.527778,61.613616
62.668611,60.263481
62.784722,59.523085
62.952222,57.673545
63.0725,56.843139
63.221111,55.603338
63.326944,54.703248
63.473611,53.57378
63.5875,52.724018
63.733056,51.743597
63.848889,50.943194
63.983333,50.033426
64.132778,49.083976
64.249444,48.393907
64.3975,47.493817
64.514444,48.033871
64.663611,50.073107
64.783333,52.173317
64.943056,51.413564
65.06,50.513474
65.206944,49.433366
65.320556,48.64361
65.464722,47.673835
65.583611,49.523375
65.729722,51.523898
65.845278,51.613907
65.973889,50.673167
66.058056,49.97342
66.205278,48.903958
66.319444,48.163562
66.533333,48.293252
66.700833,50.353781
66.816389,52.463669
66.960833,51.183218
67.067222,50.323778
67.211389,49.183664
67.326389,48.34358
67.476389,47.603183
67.5925,48.583604
67.740556,50.963519
67.887778,51.363236
68.025556,50.27345
68.154444,49.193342
68.265833,48.383261
68.382778,47.493817
68.526944,46.883111
68.671111,49.463369
68.794167,51.103856
68.953056,50.44379
69.060833,49.523375
69.206944,48.403586
69.326111,47.533499
69.470556,46.653733
69.614167,48.073553
69.720278,49.853408
69.866944,51.763922
69.998333,50.57348
70.145278,49.303676
70.26,48.543922
70.405,47.333156
70.553611,47.653511
70.661667,49.183664
70.811667,51.143537
70.947222,51.203543
71.068056,50.14376
71.219167,48.853631
71.3275,47.993222
71.475,46.993445
71.599722,48.433589
71.724167,49.903736
71.865833,51.973943
72.005,48.003868
72.129167,45.763322
72.270556,44.633854
72.391944,43.694082
72.547778,43.664079
72.666667,45.473938
72.812778,47.533499
72.945556,48.553601
73.065556,47.713517
73.21,46.873433
73.331389,46.224013
73.474722,45.253271
73.593611,45.673313
73.743056,48.143237
73.863611,49.763399
73.992222,48.793625
74.130833,47.753198
74.232222,47.183141
74.313333,46.674058
74.430278,46.254016
74.546389,47.303153
74.662778,49.263994
74.809722,51.563579
74.941389,50.453468
75.060278,50.343134
75.215556,49.853408
75.332778,49.053973
75.481667,48.063874
75.603333,49.763399
75.7475,51.963296
75.862778,52.523675
75.996111,51.033203
76.134444,49.714039
76.249444,48.653288
76.396667,47.44349
76.515278,47.373805
76.659444,49.293997
76.805556,51.433889
76.936667,50.533799
77.026111,49.534021
77.1275,48.653288
77.241667,47.57318
77.322778,47.053451
77.469167,45.763322
77.583611,47.173463
77.730278,49.183664
77.881944,49.913414
78.018333,48.483916
78.135278,47.333156
78.278889,46.233691
78.395833,45.183586
78.541944,46.143682
78.658889,47.233469
78.773611,49.253348
78.863333,49.414009
78.993056,48.17324
79.137778,46.803748
79.287778,45.823328
79.407778,44.573848
79.517222,45.233914
79.662222,47.103778
79.776111,48.653288
79.934722,48.153883
80.048611,47.083454
80.233333,45.403286
80.340556,44.513842
80.457222,43.79377
80.6025,45.453613
80.7475,47.653511
80.869167,48.193565
81.0025,46.863754
81.149722,45.543622
81.269722,44.463514
81.413889,43.373728
81.540556,44.113156
81.696389,46.24337
81.813889,47.883856
81.948333,46.753421
82.078333,45.553301
82.205556,44.403508
82.325,43.433734
82.473889,42.793992
82.590278,44.293174
82.735833,46.083676
82.889167,46.683736
83.016389,45.533944
83.132222,44.413187
83.281111,43.214034
83.408889,42.193932
83.5275,43.503418
83.667222,45.213589
83.796944,46.963442
83.956944,48.313577
84.064167,47.153138
84.210556,45.683959
84.325556,44.623208
84.475278,43.484061
84.591389,43.163707
84.7475,45.233914
84.862222,46.683736
84.993611,46.79407
85.130833,45.453613
85.281667,44.05315
85.3975,43.013692
85.547778,42.353626
85.667778,43.713439
85.812222,45.753643
85.942778,47.373805
86.059722,48.893312
86.2125,50.693492
86.318889,51.313877
86.464167,49.763399
86.609167,48.003868
86.73,46.773745
86.881389,45.313277
87.011944,46.393385
87.133611,47.853853
87.278611,49.753721
87.391944,48.613607
87.536111,47.183141
87.6875,45.613307
87.794167,44.533199
87.955278,44.023147
88.071389,45.303598
88.2175,47.303153
88.325833,48.543922
88.476944,46.853108
88.591111,45.663634
88.737222,44.233168
88.884167,42.843352
89.007778,44.153806
89.127222,45.34328
89.271667,47.353481
89.389722,48.573925
89.534167,46.97312
89.65,45.72364
89.796389,44.363827
89.956111,43.653433
90.075,45.133259
90.189167,46.603406
90.329444,48.363904
90.520556,47.333156
90.728056,45.393607
90.946111,44.233168
91.063889,45.573625
91.212778,47.683514
91.330556,49.103333
91.478611,47.613829
91.594722,46.423388
91.743611,44.853553
91.857222,43.773445
91.990556,44.643532
92.128056,46.284019
92.278333,47.963219
92.396389,48.313577
92.541389,46.723418
92.655278,45.583304
92.799444,44.463514
92.928056,43.283719
93.035278,44.99389
93.126111,45.773968
93.242778,47.57318
93.3325,48.683291
93.476667,47.853853
93.592222,46.554046
93.734444,45.163262
93.880556,43.903135
94.011111,44.69386
94.127222,46.123358
94.241944,47.52382
94.3225,48.533276
94.466111,48.013547
94.615278,46.3237
94.731944,45.04325
94.880833,43.664079
95.011389,44.613529
95.126389,45.973343
95.271667,47.733841
95.416389,48.433589
95.522778,47.193787
95.669722,45.663634
95.787222,44.483839
95.949722,43.743442
96.070556,45.253271
96.215278,46.97312
96.331389,48.393907
96.481389,47.623508
96.600278,46.3237
96.748333,44.82355
96.870278,43.653433
97.001389,44.163484
97.141111,45.983989
97.266944,47.503496
97.425,48.573925
97.526111,47.083454
97.676944,45.403286
97.793889,44.263171
97.923056,43.163707
98.064167,44.873878
98.18,46.203688
98.328333,47.87321
98.445,48.213889
98.593333,46.173685
98.739722,44.533199
98.8625,43.394052
98.994444,43.783123
99.104722,44.99389
99.201389,46.233691
99.349722,47.973865
99.458889,47.27315
99.606111,45.883334
99.719722,44.683214
99.87,43.143382
100.004167,43.643755
100.127222,45.053896
100.241944,46.473715
100.331667,47.423165
100.475833,46.953763
100.592778,45.853331
100.711389,44.363827
100.794722,43.703761
100.962222,42.743665
101.060833,43.963141
101.180278,45.403286
101.325833,47.093132
101.47,46.803748
101.589444,45.393607
101.728056,43.883779
101.845278,42.693337
102.003889,42.963364
102.118056,44.103478
102.266111,45.963664
102.382222,47.183141
102.529722,45.563947
102.645833,44.373505
102.793333,42.833674
102.952778,42.003268
103.059167,43.184031
103.207222,44.923238
103.328056,46.293697
103.451944,46.053673
103.601111,44.463514
103.716111,43.244037
103.861389,41.793247
103.993889,42.003268
104.132222,43.57407
104.278333,45.253271
104.398056,46.3237
104.546667,44.543845
104.661667,43.364049
104.806389,41.933584
104.966944,41.293842
105.075,42.42331
105.198333,43.823773
105.343611,45.453613
105.458611,45.063574
105.606944,43.473415
105.730556,42.213289
105.846111,41.193187
105.9775,40.973488
106.124444,42.843352
106.240833,44.173162
106.321389,45.073253
106.466389,44.82355
106.614444,43.27404
106.737222,42.173608
107.059722,41.873578
107.165833,42.993367
107.264444,44.043472
107.379444,45.323923
107.525,44.113156
107.640278,42.733986
107.721944,41.873578
107.869444,40.663779
107.998611,40.803148
108.128333,42.163929
108.243333,43.064019
108.3225,44.213812
108.470556,43.903135
108.586389,42.813349
108.735,41.573548
108.853333,40.384074
108.987222,40.27374
109.135278,41.793247
109.250833,42.853998
109.3975,44.433511
109.517222,43.154028
109.663333,41.713884
109.81,40.343425
109.939722,39.37365
110.057778,40.633776
110.199444,42.033271
110.321111,43.3234
110.469167,44.913559
110.584167,43.983466
110.728889,42.603328
110.877778,40.963809
111.009444,40.474083
111.129167,41.663557
111.279444,43.184031
111.396111,44.453836
111.541111,44.133481
111.659167,43.184031
111.804444,41.453536
111.933611,40.223413
112.041389,40.823473
112.131944,42.043917
112.286111,43.544067
112.395278,44.753866
112.540278,44.513842
112.655278,43.244037
112.799722,41.763244
112.960556,40.384074
113.058889,41.423533
113.211667,42.983689
113.329167,43.943785
113.444167,45.363604
113.523056,44.763544
113.669167,43.244037
113.785556,41.943262
113.948611,40.453758
114.0625,41.453536
114.206944,42.933361
114.320833,44.013469
114.527778,44.713217
114.704167,42.853998
114.824444,41.643232
114.945278,40.49344
115.061944,41.513542
115.178056,42.483316
115.324444,44.083153
115.471667,45.273595
115.588889,44.043472
115.731111,42.523965
115.847222,41.343202
115.977222,40.553446
116.123611,41.723563
116.271667,43.443412
116.393611,44.673535
116.505278,44.883556
116.595833,43.903135
116.743889,42.343947
116.858056,41.153506
117.017222,40.773145
117.124167,41.843575
117.270556,43.253716
117.386667,44.493517
117.532778,44.44319
117.6775,42.903358
117.7925,41.673235
117.955556,40.114047
118.063889,41.143827
118.211389,42.573325
118.331389,43.75312
118.476111,45.153583
118.591111,44.543845
118.736667,42.393307
118.852778,41.263839
118.986944,40.474083
119.13,41.533866
119.245,42.97401
119.389444,44.383183
119.534722,44.973565
119.649722,43.503418
119.8,42.023593
119.933333,40.483761
120.048333,41.143827
120.193889,42.483316
120.311944,43.713439
120.460556,45.12358
120.581944,44.373505
120.736667,42.563647
120.973889,40.343425
121.0675,41.163184
121.213889,42.713662
121.331944,43.823773
121.480833,45.303598
121.599722,44.173162
121.750278,42.433956
121.856667,41.423533
121.987222,40.534089
122.131389,41.923905
122.276111,43.27404
122.393056,44.203165
122.539167,44.653211
122.655833,43.383406
122.806944,41.963587
122.936667,40.463437
123.034722,40.863154
123.123056,41.663557
123.27,43.053373
123.386111,44.183809
123.524444,44.893235
123.639444,43.454058
123.728889,42.59365
123.875278,40.92316
124.005833,40.19341
124.159722,41.893902
124.2675,42.853998
124.414444,44.333824
124.53,44.543845
124.676944,42.903358
124.793056,41.643232
124.926111,40.723785
125.034167,40.643455
125.136667,41.613229
125.254444,42.633331
125.391667,43.943785
125.509444,44.593205
125.591389,43.763767
125.735833,42.313944
125.8575,40.8738
125.991111,40.174053
126.138611,41.563869
126.253333,42.513319
126.398889,44.033794
126.544722,44.273818
126.660556,43.184031
126.808611,41.583226
126.945,40.213734
127.06,41.023815
127.178056,42.023593
127.323611,43.484061
127.439722,44.52352
127.538889,44.533199
127.685833,42.923683
127.782778,41.973265
127.945,40.354071
128.063889,41.243515
128.210833,42.613974
128.326389,43.643755
128.476389,45.033571
128.594167,44.52352
128.742222,42.623653
128.857222,41.403208
128.986667,40.603773
129.123333,41.933584
129.241389,43.004013
129.332222,43.833451
129.480833,45.233914
129.595833,44.273818
129.745278,42.72334
129.865278,41.453536
129.998056,40.763467
130.141667,42.053596
130.263056,43.214034
130.413889,44.753866
