time,pressure
0.0,277.089328
0.25,271.669431
0.5,268.088428
0.75,265.668831
1.5,260.345718
2.0,256.958283
3.0,251.054466
4.0,246.215273
5.0,241.859999
7.75,240.214673
8.85,237.117589
10.916667,232.181611
12.416667,228.987744
13.5,227.14885
16.083333,222.503224
18.083333,219.502924
19.916667,217.083327
22.083333,214.566947
24.083333,211.953782
26.583333,209.340618
28.25,207.88886
30.416667,206.14675
31.583333,205.372479
32.416667,204.791776
34.75,203.340018
36.333333,202.275395
37.166667,201.888259
42.5,199.275095
44.333333,198.597608
45.166667,192.40344
46.166667,192.016305
47.166667,191.532385
48.166667,191.14525
49.166667,190.66133
50.166667,190.274195
51.166667,189.790276
52.166667,189.306356
53.166667,188.919221
54.166667,188.435301
56.083333,193.371279
59.083333,191.919521
61.916667,190.951682
64.833333,189.983843
67.5,189.112788
70.75,188.241734
79.916667,183.789675
103.916667,178.272995
127.916667,177.111588
151.916667,173.530585
175.916667,170.820637
199.916667,168.497824
223.916667,166.562146
247.916667,164.820037
271.916667,164.820037
295.916667,163.174711
319.916667,158.91622
343.916667,160.174411
367.916667,158.432301
391.916667,157.561246
415.916667,156.593407
439.916667,155.528785
463.916667,154.560946
487.916667,152.334917
511.916667,152.625269
535.916667,151.850998
559.916667,151.076727
583.916667,150.205672
607.916667,149.334617
631.916667,148.269994
655.916667,147.302156
679.916667,146.527885
703.916667,145.850398
727.916667,145.076127
751.916667,144.39864
775.916667,142.559746
799.916667,142.075827
823.916667,142.753314
847.916667,142.366178
871.916667,141.882259
895.916667,141.301556
919.916667,141.107988
943.916667,138.39804
967.916667,140.527285
991.916667,140.140149
1015.916667,139.65623
1039.916667,139.559446
1063.916667,139.462662
1087.916667,136.462362
1111.916667,145.850398
1135.916667,139.365878
1159.916667,139.269094
1183.916667,137.720552
1207.916667,138.204472
1231.916667,137.91412
1255.916667,137.526985
1279.916667,145.65683
1303.916667,138.301256
1327.916667,136.946281
1351.916667,137.236633
1375.916667,136.946281
1399.916667,136.365578
1423.916667,136.17201
1447.916667,136.462362
1471.916667,136.075227
1495.916667,133.65563
1519.916667,132.300656
1543.916667,133.365278
1567.916667,135.107388
1591.916667,134.526685
1615.916667,134.333117
1639.916667,134.429901
1663.916667,133.945981
1687.916667,134.042765
1711.916667,133.65563
1735.916667,133.752414
1759.916667,133.945981
1783.916667,134.526685
1807.916667,133.65563
1831.916667,133.17171
1855.916667,131.139249
1879.916667,133.074927
1903.916667,132.881359
1927.916667,132.397439
1951.916667,132.107088
1975.916667,131.91352
1999.916667,131.332817
2023.916667,131.332817
2047.916667,131.236033
2071.916667,129.977843
2095.916667,120.009104
2119.916667,129.977843
2143.916667,171.498124
2167.916667,158.529085
2191.916667,151.367078
2215.916667,136.462362
2239.916667,135.107388
2263.916667,134.042765
2287.916667,133.365278
2311.916667,132.203872
2335.916667,132.687791
2359.916667,131.719952
2383.916667,131.429601
2407.916667,131.236033
2431.916667,131.139249
2455.916667,131.139249
2503.916667,130.945681
2527.916667,128.429301
2551.916667,129.493923
2575.916667,130.558546
2599.916667,128.622868
2623.916667,128.429301
2647.916667,130.074627
