time,pressure
0.0,80.358431
0.141111,80.232612
0.141389,80.232612
0.174722,79.58416
0.208056,79.187346
0.241389,78.74214
0.274722,78.422753
0.308056,78.074331
0.341389,77.78398
0.374722,77.503306
0.408056,77.145206
0.441389,76.893568
0.474722,76.603216
0.508056,76.303186
0.541389,76.080583
0.574722,75.809589
0.608056,75.567629
0.641389,75.364383
0.674722,75.112745
0.708056,74.880463
0.741389,74.628825
0.774722,74.406222
0.808056,74.222333
0.841389,73.99973
0.874722,73.796484
0.908056,73.593238
0.941389,73.380313
0.974722,73.215781
1.007778,73.022213
1.041111,72.857681
1.074444,72.644756
1.107778,72.518937
1.141111,72.325369
1.174444,72.180193
1.207778,72.015661
1.241111,71.851128
1.274444,71.744666
1.307778,71.59949
1.341111,71.454314
1.374444,71.318817
1.407778,71.192998
1.441111,71.076857
1.474444,70.94136
1.507778,70.815541
1.541111,70.6994
1.574444,70.602616
1.607778,70.476797
1.641111,70.350978
1.674444,70.234838
1.707778,70.128375
1.741111,70.04127
1.774444,69.925129
1.807778,69.838024
1.841111,69.712205
1.874444,69.586386
1.907778,69.528315
1.941111,69.450888
1.974444,69.354104
2.007778,69.228285
2.041111,69.160537
2.074444,69.073431
2.107778,68.996004
2.141111,68.89922
2.174444,68.802436
2.207778,68.725009
2.241111,68.647582
2.274444,68.560477
2.307778,68.48305
2.341111,68.376587
2.374444,68.29916
2.407778,68.24109
2.441111,68.173341
2.474444,68.086236
2.507778,67.99913
2.541111,67.960417
2.574444,67.902346
2.607778,67.815241
2.641111,67.766849
2.674444,67.670065
2.707778,67.592638
2.741111,67.515211
2.774444,67.447462
2.807778,67.370035
2.841111,67.302286
2.874444,67.224859
2.907778,67.166789
2.940833,67.108719
2.974167,67.060327
3.0075,66.992578
3.040833,66.915151
3.074167,66.866759
3.1075,66.769975
3.140833,66.731261
3.174167,66.653834
3.2075,66.605442
3.240833,66.537694
3.274167,66.479623
3.3075,66.392518
3.340833,66.344126
3.374167,66.266699
3.4075,66.19895
3.440833,66.14088
3.474167,66.082809
3.5075,66.024739
3.540833,65.966669
3.574167,65.89892
3.6075,65.850528
3.640833,65.782779
3.674167,65.715031
3.7075,65.637604
3.740833,65.569855
3.774167,65.511785
3.8075,65.453714
3.840833,65.376287
3.874167,65.327895
3.9075,65.250468
3.940833,65.192398
3.974167,65.134328
4.0075,65.076257
4.040833,65.027865
4.074167,64.950438
4.1075,64.882689
4.140833,64.834298
4.174167,64.776227
4.2075,64.6988
4.240833,64.660087
4.274167,64.621373
4.3075,64.572981
4.340833,64.505232
4.374167,64.437484
4.4075,64.389092
4.440833,64.350378
4.474167,64.292308
4.5075,64.234238
4.540833,64.205202
4.574167,64.147132
4.6075,64.09874
4.640833,64.050348
4.674167,63.992278
4.7075,63.943886
4.740833,63.905172
4.774167,63.866459
4.8075,63.79871
4.840833,63.750318
4.873889,63.711605
4.907222,63.672891
4.940556,63.624499
4.973889,63.55675
5.007222,63.49868
5.040556,63.479323
5.073889,63.421253
5.107222,63.392218
5.140556,63.324469
5.173889,63.25672
5.207222,63.237364
5.240556,63.188972
5.273889,63.14058
5.307222,63.101866
5.340556,63.043796
5.373889,63.005082
5.407222,62.95669
5.440556,62.917977
5.473889,62.879263
5.507222,62.850228
5.540556,62.772801
5.573889,62.743766
5.607222,62.676017
5.640556,62.646982
5.673889,62.59859
5.707222,62.579233
5.740556,62.54052
5.773889,62.453414
5.807222,62.424379
5.840556,62.385666
5.873889,62.35663
5.907222,62.327595
5.940556,62.250168
5.973889,62.259847
6.007222,62.201776
6.040556,62.153384
6.073889,62.172741
6.107222,62.095314
6.140556,62.027565
6.173889,61.979173
6.207222,62.017887
6.240556,61.969495
6.273889,61.930781
6.307222,61.853354
6.340556,61.863033
6.373889,61.804962
6.407222,61.843676
6.440556,61.785606
6.473889,61.737214
6.507222,61.727535
6.540556,61.746892
6.573889,61.6985
6.607222,61.611395
6.640556,61.563003
6.673889,61.543646
6.707222,61.45654
6.740556,61.45654
6.773889,61.427505
6.807222,61.359757
6.840278,61.253294
6.873611,61.243616
6.906944,61.224259
6.940278,61.146832
6.973611,61.127475
7.006944,61.108118
7.040278,61.050048
7.073611,61.059727
7.106944,61.011335
7.140278,60.953264
7.173611,60.924229
7.206944,60.895194
7.240278,60.85648
7.273611,60.779053
7.306944,60.817767
7.340278,60.788732
7.373611,60.750018
7.406944,60.701626
7.440278,60.682269
7.473611,60.643556
7.506944,60.604842
7.540278,60.537094
7.573611,60.537094
7.606944,60.537094
7.640278,60.449988
7.673611,60.430631
7.706944,60.391918
7.740278,60.362883
7.773611,60.295134
7.806944,60.353204
7.840278,60.353204
7.873611,60.324169
7.906944,60.25642
7.940278,60.208028
7.973611,60.178993
8.006944,60.159637
8.040278,60.217707
8.073611,60.120923
8.106944,60.072531
8.140278,59.995104
8.173611,60.043496
8.206944,60.033817
8.240278,59.975747
8.273611,59.95639
8.306944,59.927355
8.340278,59.878963
8.373611,59.801536
8.406944,59.907998
8.440278,59.859607
8.473611,59.859607
8.506944,59.927355
8.540278,59.849928
8.573611,59.937034
8.606944,59.917677
8.640278,59.859607
8.673611,59.724109
8.706944,59.666039
8.740278,59.675717
8.773333,59.753144
8.806667,59.84025
8.84,59.878963
8.873333,59.830571
8.906667,59.753144
8.94,59.791858
8.973333,59.791858
9.006667,59.772501
9.04,59.782179
9.073333,59.791858
9.106667,59.801536
9.14,59.830571
9.173333,59.84025
9.206667,59.820893
9.24,59.869285
9.273333,59.782179
9.306667,59.820893
9.34,59.733787
9.373333,59.714431
9.406667,59.762823
9.44,59.782179
9.473333,59.753144
9.506667,59.714431
9.54,59.704752
9.573333,59.733787
9.606667,59.714431
9.64,59.666039
9.673333,59.59829
9.706667,59.520863
9.74,59.453114
9.773333,59.424079
9.806667,59.346652
9.84,59.24019
9.873333,59.24019
9.906667,59.220833
9.94,59.182119
9.973333,59.133727
10.006667,59.095014
10.04,59.075657
10.073333,59.027265
10.106667,59.017587
10.14,58.978873
10.173333,58.959517
10.206667,58.988552
10.24,58.959517
10.273333,58.911125
10.306667,58.882089
10.34,58.882089
10.373333,58.843376
10.406667,58.746592
10.44,58.75627
10.473333,58.746592
10.506667,58.717557
10.54,58.669165
10.573333,58.659487
10.606667,58.659487
10.64,58.533667
10.673333,58.485276
10.706667,58.601416
10.739722,58.620773
10.773056,58.611095
10.806389,58.669165
10.839722,58.669165
10.873056,58.678843
10.906389,58.736914
10.939722,58.717557
10.973056,58.717557
11.006389,58.736914
11.039722,58.717557
11.073056,58.746592
11.106389,58.794984
11.139722,58.814341
11.173056,58.833697
11.206389,58.853054
11.239722,58.891768
11.273056,58.920803
11.306389,58.94016
11.339722,58.959517
11.373056,58.978873
11.406389,59.007908
11.439722,59.046622
11.473056,59.046622
11.506389,59.075657
11.539722,59.095014
11.573056,59.133727
11.606389,59.153084
11.639722,59.191798
11.673056,59.182119
11.706389,59.211155
11.739722,59.211155
11.773056,59.220833
11.806389,59.278903
11.839722,59.327295
11.873056,59.317617
11.906389,59.327295
11.939722,59.336974
11.973056,59.35633
12.006389,59.346652
12.039722,59.385366
12.073056,59.404722
12.106389,59.414401
12.139722,59.424079
12.173056,59.453114
12.206389,59.462793
12.239722,59.491828
12.273056,59.501506
12.306389,59.520863
12.339722,59.511185
12.373056,59.520863
12.406389,59.559577
12.439722,59.559577
12.473056,59.559577
12.506389,59.578933
12.539722,59.588612
12.573056,59.59829
12.606389,59.59829
12.639722,59.627325
12.673056,59.646682
12.706111,59.646682
12.739444,59.65636
12.772778,59.65636
12.806111,59.675717
12.839444,59.704752
12.872778,59.695074
12.906111,59.695074
12.939444,59.695074
12.972778,59.724109
13.006111,59.733787
13.039444,59.753144
13.072778,59.753144
13.106111,59.772501
13.139444,59.801536
13.172778,59.772501
13.206111,59.782179
13.239444,59.791858
13.272778,59.820893
13.306111,59.830571
13.339444,59.849928
13.372778,59.849928
13.406111,59.84025
13.439444,59.859607
13.472778,59.878963
13.506111,59.878963
13.539444,59.89832
13.572778,59.89832
13.606111,59.917677
13.639444,59.917677
13.672778,59.907998
13.706111,59.927355
13.739444,59.917677
13.772778,59.937034
13.806111,59.966069
13.839444,59.95639
13.872778,59.966069
13.906111,59.966069
13.939444,59.985426
13.972778,59.966069
14.006111,59.975747
14.039444,59.95639
14.072778,59.966069
14.106111,59.975747
14.139444,59.975747
14.172778,59.975747
14.206111,59.995104
14.239444,59.995104
14.272778,59.985426
14.306111,60.014461
14.339444,60.014461
14.372778,59.975747
14.406111,60.024139
14.439444,60.043496
14.472778,60.043496
14.506111,60.024139
14.539444,60.043496
14.572778,60.014461
14.606111,60.033817
14.639444,60.062853
14.6725,60.053174
14.705833,60.043496
14.739167,60.062853
14.7725,60.053174
14.805833,60.024139
14.839167,60.024139
14.8725,60.053174
14.905833,60.043496
14.939167,60.033817
14.9725,60.024139
15.005833,60.014461
15.039167,60.043496
15.0725,60.014461
15.105833,60.014461
15.139167,60.053174
15.1725,60.043496
15.205833,60.062853
15.239167,60.053174
15.2725,60.033817
15.305833,59.995104
15.339167,60.004782
15.3725,60.004782
15.405833,60.033817
15.439167,60.043496
15.4725,60.004782
15.505833,59.995104
15.539167,59.975747
15.5725,59.985426
15.605833,59.966069
15.639167,59.966069
15.6725,59.95639
15.705833,59.975747
15.739167,59.966069
15.7725,59.946712
15.805833,59.975747
15.839167,59.966069
15.8725,59.95639
15.905833,59.946712
15.939167,59.937034
15.9725,59.966069
16.005833,59.966069
16.039167,59.995104
16.0725,59.95639
16.105833,59.927355
16.139167,59.927355
16.1725,59.927355
16.205833,59.89832
16.239167,59.917677
16.2725,59.927355
16.305833,59.89832
16.339167,59.907998
16.3725,59.888642
16.405833,59.888642
16.439167,59.888642
16.4725,59.869285
16.505833,59.859607
16.539167,59.869285
16.5725,59.84025
16.605556,59.878963
16.638889,59.888642
16.672222,59.859607
16.705556,59.849928
16.738889,59.830571
16.772222,59.830571
16.805556,59.830571
16.838889,59.84025
16.872222,59.830571
16.905556,59.801536
16.938889,59.801536
16.972222,59.791858
17.005556,59.820893
17.038889,59.820893
17.072222,59.801536
17.105556,59.791858
17.138889,59.782179
17.172222,59.791858
17.205556,59.762823
17.238889,59.753144
17.272222,59.743466
17.305556,59.743466
17.338889,59.743466
17.372222,59.772501
17.405556,60.091888
17.438889,61.09844
17.472222,61.901746
17.505556,62.646982
17.538889,63.527715
17.572222,64.311665
17.605556,65.085936
17.638889,65.744066
17.672222,66.344126
17.705556,67.002256
17.738889,67.621673
17.772222,68.221733
17.805556,68.734688
17.838889,69.305712
17.872222,69.876737
17.905556,70.447762
17.938889,70.902646
17.972222,71.444636
18.005556,71.986626
18.038889,72.596364
18.072222,73.157711
18.105556,73.680343
18.138889,73.602916
18.172222,73.070605
18.205556,72.586686
18.238889,72.238264
18.272222,71.84145
18.305556,71.522063
18.338889,71.24139
18.372222,71.028465
18.405556,71.105892
18.438889,71.096214
18.472222,71.047822
18.505556,70.88329
18.538889,70.728435
18.571944,70.602616
18.605278,70.447762
18.638611,70.273551
18.671944,70.128375
18.705278,69.925129
18.738611,69.721883
18.771944,69.508959
18.805278,69.286356
18.838611,69.131501
18.871944,68.937934
18.905278,68.734688
18.938611,68.560477
18.971944,68.415301
19.005278,68.270125
19.038611,68.134628
19.071944,67.979773
19.105278,67.873311
19.138611,67.718457
19.171944,67.592638
19.205278,67.45714
19.238611,67.350678
19.271944,67.205502
19.305278,67.079683
19.338611,66.973221
19.371944,66.876437
19.405278,66.760297
19.438611,66.624799
19.471944,66.49898
19.505278,66.373161
19.538611,66.286056
19.571944,66.179593
19.605278,66.082809
19.638611,65.95699
19.671944,65.860207
19.705278,65.763423
19.738611,65.647282
19.771944,65.54082
19.805278,65.444036
19.838611,65.337574
19.871944,65.211755
19.905278,65.153684
19.938611,64.969795
19.971944,64.737514
20.005278,64.514911
20.038611,64.311665
20.071944,64.176167
20.105278,64.060027
20.138611,63.876137
20.171944,63.721283
20.205278,63.547072
20.238611,63.450288
20.271944,63.276077
20.305278,63.169615
20.338611,63.053474
20.371944,62.927655
20.405278,62.830871
20.438611,62.724409
20.471944,62.59859
20.505,62.501806
20.538333,62.424379
20.571667,62.29856
20.605,62.230811
20.638333,62.124349
20.671667,62.037244
20.705,61.94046
20.738333,61.863033
20.771667,61.766249
20.805,61.669465
20.838333,61.582359
20.871667,61.475897
20.905,61.417827
20.938333,61.350078
20.971667,61.262973
21.005,61.166189
21.038333,61.117797
21.071667,61.021013
21.105,60.943586
21.138333,60.875837
21.171667,60.759697
21.205,60.701626
21.238333,60.614521
21.271667,60.527415
21.305,60.459667
21.338333,60.382239
21.371667,60.266099
21.405,60.19835
21.438333,60.159637
21.471667,60.091888
21.505,59.995104
21.538333,59.888642
21.571667,59.820893
21.605,59.743466
21.638333,59.704752
21.671667,59.607968
21.705,59.520863
21.738333,59.472471
21.771667,59.404722
21.805,59.336974
21.838333,59.211155
21.871667,59.182119
21.905,59.095014
21.938333,59.0563
21.971667,58.978873
22.005,58.920803
22.038333,58.833697
22.071667,58.75627
22.105,58.717557
22.138333,58.649808
22.171667,58.572381
22.205,58.533667
22.238333,58.45624
22.271667,58.407848
22.305,58.330421
22.338333,58.262673
22.371667,58.223959
22.405,58.15621
22.438056,58.088462
22.471389,58.030391
22.504722,57.933607
22.538056,57.885216
22.571389,57.836824
22.604722,57.788432
22.638056,57.711005
22.671389,57.681969
22.704722,57.691648
22.738056,57.614221
22.771389,57.536794
22.804722,57.469045
22.838056,57.372261
22.871389,57.372261
22.904722,57.294834
22.938056,57.236764
22.971389,57.19805
23.004722,57.159336
23.038056,57.101266
23.071389,57.043196
23.104722,56.946412
23.138056,56.89802
23.171389,56.888342
23.204722,56.888342
23.238056,56.83995
23.271389,56.83995
23.304722,56.83995
23.338056,56.83995
23.371389,56.83995
23.404722,56.89802
23.438056,56.965769
23.471389,56.985126
23.504722,56.985126
23.538056,57.043196
23.571389,57.081909
23.604722,57.130301
23.638056,57.169015
23.671389,57.207728
23.704722,57.246442
23.738056,57.294834
23.771389,57.314191
23.804722,57.294834
23.838056,57.352904
23.871389,57.352904
23.904722,57.362583
23.938056,57.362583
23.971389,57.391618
24.004722,57.410975
24.038056,57.410975
24.071389,57.401296
24.104722,57.410975
24.138056,57.44001
24.171389,57.459366
24.204722,57.459366
24.238056,57.469045
24.271389,57.469045
24.304722,57.469045
24.338056,57.459366
24.371111,57.449688
24.404444,57.459366
24.437778,57.49808
24.471111,57.459366
24.504444,57.488402
24.537778,57.517437
24.571111,57.517437
24.604444,57.623899
24.637778,57.662613
24.671111,57.691648
24.704444,57.691648
24.737778,57.662613
24.771111,57.614221
24.804444,57.652934
24.837778,57.623899
24.871111,57.633577
24.904444,57.633577
24.937778,57.633577
24.971111,57.623899
25.004444,57.623899
25.037778,57.623899
25.071111,57.604542
25.104444,57.594864
25.137778,57.585186
25.171111,57.614221
25.204444,57.604542
25.237778,57.604542
25.271111,57.594864
25.304444,57.623899
25.337778,57.604542
25.371111,57.594864
25.404444,57.585186
25.437778,57.585186
25.471111,57.585186
25.504444,57.594864
25.537778,57.594864
25.571111,57.594864
25.604444,57.575507
25.637778,57.594864
25.671111,57.604542
25.704444,57.55615
25.737778,57.55615
25.771111,57.565829
25.804444,57.55615
25.837778,57.55615
25.871111,57.565829
25.904444,57.546472
25.937778,57.575507
25.971111,57.575507
26.004444,57.565829
26.037778,57.565829
26.071111,57.565829
26.104444,57.585186
26.137778,57.55615
26.171111,57.575507
26.204444,57.546472
26.237778,57.546472
26.270833,57.565829
26.304167,57.565829
26.3375,57.55615
26.370833,57.565829
26.404167,57.565829
26.4375,57.546472
26.470833,57.507758
26.504167,57.536794
26.5375,57.517437
26.570833,57.517437
26.604167,57.507758
26.6375,57.517437
26.670833,57.49808
26.704167,57.517437
26.7375,57.488402
26.770833,57.488402
26.804167,57.49808
26.8375,57.488402
26.870833,57.488402
26.904167,57.478723
26.9375,57.49808
26.970833,57.49808
27.004167,57.459366
27.0375,57.478723
27.070833,57.469045
27.104167,57.469045
27.1375,57.449688
27.170833,57.449688
27.204167,57.430331
27.2375,57.401296
27.270833,57.410975
27.304167,57.401296
27.3375,57.401296
27.370833,57.410975
27.404167,57.401296
27.4375,57.381939
27.470833,57.372261
27.504167,57.362583
27.5375,57.314191
27.570833,57.265799
27.604167,57.130301
27.6375,57.149658
27.670833,57.149658
27.704167,57.13998
27.7375,57.13998
27.770833,57.188372
27.804167,57.178693
27.8375,57.120623
27.870833,57.101266
27.904167,57.091588
27.9375,57.091588
27.970833,57.072231
28.004167,57.110945
28.0375,57.120623
28.070833,57.130301
28.104167,57.081909
28.1375,57.033517
28.170833,57.033517
28.203889,57.091588
28.237222,57.120623
28.270556,57.130301
28.303889,57.149658
28.337222,57.13998
28.370556,57.149658
28.403889,57.130301
28.437222,57.130301
28.470556,57.13998
28.503889,57.13998
28.537222,57.120623
28.570556,57.110945
28.603889,57.110945
28.637222,57.130301
28.670556,57.13998
28.703889,57.130301
28.737222,57.120623
28.770556,57.043196
28.803889,57.062553
28.837222,57.072231
28.870556,57.110945
28.903889,57.110945
28.937222,57.120623
28.970556,57.149658
29.003889,57.072231
29.037222,56.994804
29.070556,56.907698
29.103889,56.917377
29.137222,56.89802
29.170556,57.004482
29.203889,57.072231
29.237222,57.110945
29.270556,57.149658
29.303889,57.149658
29.337222,57.130301
29.370556,57.149658
29.403889,57.130301
29.437222,57.130301
29.470556,57.110945
29.503889,57.120623
29.537222,57.091588
29.570556,57.091588
29.603889,57.091588
29.637222,57.091588
29.670556,57.091588
29.703889,57.072231
29.737222,57.004482
29.770556,56.878663
29.803889,56.907698
29.837222,56.927055
29.870556,56.946412
29.903889,56.868985
29.937222,56.907698
29.970556,56.975447
30.003889,57.023839
30.037222,57.072231
30.070556,57.072231
30.103889,57.062553
30.136944,57.043196
30.170278,57.023839
30.203611,57.033517
30.236944,57.033517
30.270278,56.95609
30.303611,56.927055
30.336944,56.791558
30.370278,56.791558
30.403611,56.820593
30.436944,56.868985
30.470278,56.878663
30.503611,56.95609
30.536944,56.994804
30.570278,56.965769
30.603611,56.95609
30.636944,56.946412
30.670278,56.927055
30.703611,56.936734
30.736944,56.946412
30.770278,56.936734
30.803611,56.917377
30.836944,56.917377
30.870278,56.89802
30.903611,56.868985
30.936944,56.868985
30.970278,56.830271
31.003611,56.830271
31.036944,56.83995
31.070278,56.830271
31.103611,56.83995
31.136944,56.830271
31.170278,56.810915
31.203611,56.830271
31.236944,56.820593
31.270278,56.694774
31.303611,56.588312
31.336944,56.607668
31.370278,56.685096
31.403611,56.723809
31.436944,56.810915
31.470278,56.810915
31.503611,56.810915
31.536944,56.791558
31.570278,56.781879
31.603611,56.743166
31.636944,56.675417
31.670278,56.578633
31.703611,56.617347
31.736944,56.568955
31.770278,56.627025
31.803611,56.704452
31.836944,56.743166
31.870278,56.723809
31.903611,56.694774
31.936944,56.636704
31.970278,56.636704
32.003611,56.675417
32.036944,56.694774
32.07,56.714131
32.103333,56.704452
32.136667,56.694774
32.17,56.694774
32.203333,56.685096
32.236667,56.646382
32.27,56.59799
32.303333,56.549598
32.336667,56.578633
32.37,56.588312
32.403333,56.59799
32.436667,56.607668
32.47,56.59799
32.503333,56.578633
32.536667,56.578633
32.57,56.568955
32.603333,56.568955
32.636667,56.578633
32.67,56.588312
32.703333,56.559276
32.736667,56.53992
32.77,56.53992
32.803333,56.530241
32.836667,56.530241
32.87,56.394744
32.903333,56.326995
32.936667,56.35603
32.97,56.404422
33.003333,56.452814
33.036667,56.501206
33.07,56.491528
33.103333,56.481849
33.136667,56.491528
33.17,56.481849
33.203333,56.472171
33.236667,56.462493
33.27,56.462493
33.303333,56.462493
33.336667,56.443136
33.37,56.443136
33.403333,56.443136
33.436667,56.326995
33.47,56.210855
33.503333,56.230211
33.536667,56.278603
33.57,56.288282
33.603333,56.23989
33.636667,56.220533
33.67,56.288282
33.703333,56.29796
33.736667,56.259246
33.77,56.123749
33.803333,56.123749
33.836667,56.152784
33.87,56.172141
33.903333,56.162463
33.936667,56.191498
33.97,56.210855
34.003056,56.23989
34.036389,56.181819
34.069722,56.036644
34.103056,56.056
34.136389,56.017287
34.169722,56.056
34.203056,56.152784
34.236389,56.201176
34.269722,56.191498
34.303056,56.201176
34.336389,56.210855
34.369722,56.191498
34.403056,56.181819
34.436389,56.162463
34.469722,56.172141
34.503056,56.133427
34.536389,56.036644
34.569722,55.99793
34.603056,56.036644
