time,pressure
0.0,32.467141
0.166667,32.563925
0.333056,32.563925
0.499722,32.467141
0.666389,32.467141
0.833056,32.467141
0.999722,32.467141
1.166111,32.467141
1.332778,32.467141
1.499444,32.467141
1.666111,32.563925
1.8325,32.563925
1.999167,32.563925
2.165833,32.563925
2.215556,32.563925
2.215833,32.563925
2.216111,32.563925
2.216389,32.563925
2.217778,32.563925
2.251111,32.167111
2.284444,31.567051
2.317778,31.160559
2.351111,30.763745
2.384444,30.366931
2.417778,29.960439
2.451111,29.660409
2.484444,29.360379
2.517778,29.060349
2.551111,28.866781
2.584167,28.663535
2.6175,28.363505
2.650833,28.160259
2.684167,28.063475
2.7175,27.860229
2.750833,27.666661
2.784167,27.560199
2.8175,27.463415
2.850833,27.260169
2.884167,27.163385
2.9175,27.066601
2.950833,26.960139
2.984167,26.863355
3.0175,26.766571
3.050833,26.660109
3.084167,26.563325
3.1175,26.563325
3.150833,26.466541
3.184167,26.360079
3.2175,26.360079
3.250833,26.263295
3.284167,26.263295
3.3175,26.166511
3.350556,26.166511
3.383889,26.060049
3.417222,26.060049
3.450556,25.963265
3.483889,25.963265
3.517222,25.866481
3.550556,25.866481
3.583889,25.760019
3.617222,25.760019
3.650556,25.663235
3.683889,25.663235
3.717222,25.663235
3.750556,25.663235
3.783889,25.566451
3.817222,25.566451
3.850556,25.566451
3.883889,25.566451
3.917222,25.566451
3.950556,25.566451
3.983889,25.459989
4.017222,25.459989
4.050556,25.459989
4.083889,25.459989
4.116944,25.459989
4.150278,25.363205
4.183611,25.363205
4.216944,25.363205
4.250278,25.363205
4.283611,25.363205
4.316944,25.266421
4.350278,25.266421
4.383611,25.266421
4.416944,25.266421
4.450278,25.266421
4.483611,25.266421
4.516944,25.266421
4.550278,25.159959
4.583611,25.159959
4.616944,25.159959
4.650278,25.159959
4.683611,25.159959
4.716944,25.159959
4.750278,25.159959
4.783611,25.159959
4.816944,25.063175
4.850278,25.063175
4.883333,25.063175
4.916667,25.063175
4.95,25.063175
4.983333,24.966391
5.016667,24.966391
5.05,24.966391
5.083333,24.859929
5.116667,24.859929
5.15,25.159959
5.183333,25.266421
5.216667,25.363205
5.25,25.459989
5.283333,25.459989
5.316667,25.566451
5.35,25.566451
5.383333,25.566451
5.416667,25.663235
5.45,25.663235
5.483333,25.663235
5.516667,25.663235
5.55,25.663235
5.583333,25.663235
5.616667,25.663235
5.649722,25.663235
5.683056,25.663235
5.716389,25.663235
5.749722,25.663235
5.783056,25.663235
5.816389,25.663235
5.849722,25.663235
5.883056,25.663235
5.916389,25.663235
5.949722,25.663235
5.983056,25.663235
6.016389,25.663235
6.049722,25.663235
6.083056,25.663235
6.116389,25.663235
6.149722,25.663235
6.183056,25.663235
6.216389,25.663235
6.249722,25.566451
6.283056,25.566451
6.316389,25.566451
6.349722,25.566451
6.383056,25.566451
6.416111,25.566451
6.449444,25.566451
6.482778,25.566451
6.516111,25.566451
6.549444,25.566451
6.582778,25.566451
6.616111,25.566451
6.649444,25.566451
6.682778,25.566451
6.716111,25.566451
6.749444,25.566451
6.782778,25.566451
6.816111,25.566451
6.849444,25.566451
6.882778,25.566451
6.916111,25.566451
6.949444,25.566451
6.982778,25.566451
7.016111,25.566451
7.049444,25.566451
7.082778,25.566451
7.116111,25.566451
7.149444,25.566451
7.1825,25.566451
7.215833,25.566451
7.249167,25.566451
7.2825,25.566451
7.315833,25.566451
7.349167,25.566451
7.3825,25.566451
7.415833,25.566451
7.449167,25.566451
7.4825,25.566451
7.515833,25.566451
7.549167,25.566451
7.5825,25.566451
7.615833,25.566451
7.649167,25.566451
7.6825,25.566451
7.715833,25.566451
7.749167,25.566451
7.7825,25.566451
7.815833,25.566451
7.849167,25.566451
7.8825,25.566451
7.915556,25.566451
7.948889,25.566451
7.982222,25.566451
8.015556,25.566451
8.048889,25.566451
8.082222,25.566451
8.115556,25.566451
8.148889,25.566451
8.182222,25.566451
8.215556,25.566451
8.248889,25.566451
8.282222,25.566451
8.315556,25.459989
8.348889,25.459989
8.382222,25.459989
8.415556,25.459989
8.448889,25.459989
8.482222,25.459989
8.515556,25.459989
8.548889,25.459989
8.582222,25.459989
8.615556,25.459989
8.648889,25.459989
8.681944,25.459989
8.715278,25.459989
8.748611,25.459989
8.781944,25.459989
8.815278,25.459989
8.848611,25.459989
8.881944,25.459989
8.915278,25.459989
8.948611,25.459989
8.981944,25.459989
9.015278,25.459989
9.048611,25.459989
9.081944,25.459989
9.115278,25.459989
9.148611,25.459989
9.181944,25.363205
9.215278,25.363205
9.248611,25.363205
9.281944,25.363205
9.315278,25.363205
9.348611,25.363205
9.381944,25.363205
9.415278,25.363205
9.448333,25.363205
9.481667,25.363205
9.515,25.363205
9.548333,25.363205
9.581667,25.363205
9.615,25.363205
9.648333,25.363205
9.681667,25.363205
9.715,25.363205
9.748333,25.363205
9.781667,25.363205
9.815,25.363205
9.848333,25.363205
9.881667,25.266421
9.915,25.266421
9.948333,25.266421
9.981667,25.266421
10.015,25.266421
10.048333,25.266421
10.081667,25.266421
10.115,25.266421
10.148333,25.266421
10.181667,25.266421
10.214722,25.266421
10.248056,25.266421
10.281389,25.266421
10.314722,25.266421
10.348056,25.266421
10.381389,25.266421
10.414722,25.266421
10.448056,25.266421
10.481389,25.266421
10.514722,25.266421
10.548056,25.266421
10.581389,25.266421
10.614722,25.266421
10.648056,25.266421
10.681389,25.159959
10.714722,25.159959
10.748056,25.159959
10.781389,25.159959
10.814722,25.159959
10.848056,25.159959
10.881389,25.159959
10.914722,25.159959
10.948056,25.159959
10.981111,25.159959
11.014444,25.159959
11.047778,25.159959
11.081111,25.159959
11.114444,25.159959
11.147778,25.159959
11.181111,25.159959
11.214444,25.159959
11.247778,25.159959
11.281111,25.159959
11.314444,25.159959
11.347778,25.159959
11.381111,25.159959
11.414444,25.159959
11.447778,25.159959
11.481111,25.159959
11.514444,25.159959
11.547778,25.159959
11.581111,25.159959
11.614444,25.159959
11.647778,25.159959
11.681111,25.159959
11.714444,25.159959
11.7475,25.159959
11.780833,25.063175
11.814167,25.063175
11.8475,25.063175
11.880833,25.063175
11.914167,25.063175
11.9475,25.063175
11.980833,25.063175
12.014167,25.063175
12.0475,25.063175
12.080833,25.063175
12.114167,25.063175
12.1475,25.063175
12.180833,25.063175
12.214167,25.063175
12.2475,25.063175
12.280833,25.063175
12.314167,25.063175
12.3475,25.063175
12.380833,25.063175
12.414167,25.063175
12.4475,25.063175
12.480833,25.063175
12.513889,25.063175
12.547222,25.063175
12.580556,25.063175
12.613889,25.063175
12.647222,24.966391
12.680556,25.063175
12.713889,24.966391
12.747222,24.966391
12.780556,24.966391
12.813889,24.966391
12.847222,24.966391
12.880556,24.966391
12.913889,24.966391
12.947222,24.966391
12.980556,24.966391
13.013889,24.966391
13.047222,24.966391
13.080556,24.966391
13.113889,24.966391
13.147222,24.966391
13.180556,24.966391
13.213889,24.966391
13.247222,24.966391
13.280278,24.966391
13.313611,24.966391
13.346944,24.966391
13.380278,24.966391
13.413611,24.966391
13.446944,24.966391
13.480278,24.966391
13.513611,24.966391
13.546944,24.966391
13.580278,24.966391
13.613611,24.966391
13.646944,24.859929
13.680278,24.859929
13.713611,24.859929
13.746944,24.859929
13.780278,24.859929
13.813611,24.859929
13.846944,24.859929
13.880278,24.859929
13.913611,24.859929
13.946944,24.859929
13.980278,24.859929
14.013333,24.859929
14.046667,24.859929
14.08,24.859929
14.113333,24.859929
14.146667,24.859929
14.18,24.859929
14.213333,24.859929
14.246667,24.859929
14.28,24.859929
14.313333,24.859929
14.346667,24.859929
14.38,24.859929
14.413333,24.859929
14.446667,24.859929
14.48,24.859929
14.513333,24.859929
14.546667,24.859929
14.58,24.859929
14.613333,24.859929
14.646667,24.763145
14.68,24.763145
14.713333,24.763145
14.746667,24.763145
14.779722,24.763145
14.813056,24.763145
14.846389,24.763145
14.879722,24.763145
14.913056,24.763145
14.946389,24.763145
14.979722,24.763145
15.013056,24.763145
15.046389,24.763145
15.079722,24.763145
15.113056,24.763145
15.146389,24.763145
15.179722,24.763145
15.213056,24.763145
15.246389,24.763145
15.279722,24.763145
15.313056,24.763145
15.346389,24.763145
15.379722,24.763145
15.413056,24.763145
15.446389,24.763145
15.479722,24.763145
15.513056,24.763145
15.546111,24.763145
15.579444,24.763145
15.612778,24.763145
15.646111,24.763145
15.679444,24.763145
15.712778,24.763145
15.746111,24.666361
15.779444,24.666361
15.812778,24.666361
15.846111,24.666361
15.879444,24.666361
15.912778,24.666361
15.946111,24.666361
15.979444,24.666361
16.012778,24.666361
16.046111,24.666361
16.079444,24.666361
16.112778,24.666361
16.146111,24.666361
16.179444,24.666361
16.212778,24.666361
16.246111,24.666361
16.279444,24.666361
16.3125,24.666361
16.345833,24.666361
16.379167,24.666361
16.4125,24.666361
16.445833,24.666361
16.479167,24.666361
16.5125,24.666361
16.545833,24.666361
16.579167,24.666361
16.6125,24.666361
16.645833,24.666361
16.679167,24.666361
16.7125,24.666361
16.745833,24.666361
16.779167,24.666361
16.8125,24.666361
16.845833,24.666361
16.879167,24.666361
16.9125,24.666361
16.945833,24.666361
16.979167,24.559899
17.0125,24.559899
17.045833,24.559899
17.078889,24.559899
17.112222,24.559899
17.145556,24.559899
17.178889,24.559899
17.212222,24.559899
17.245556,24.559899
17.278889,24.559899
17.312222,24.559899
17.345556,24.559899
17.378889,24.559899
17.412222,24.559899
17.445556,24.559899
17.478889,24.559899
17.512222,24.559899
17.545556,24.559899
17.578889,24.559899
17.612222,24.559899
17.645556,24.559899
17.678889,24.559899
17.712222,24.559899
17.745556,24.559899
17.778889,24.559899
17.812222,24.559899
17.845278,24.559899
17.878611,24.559899
17.911944,24.559899
17.945278,24.559899
17.978611,24.463115
18.011944,24.463115
18.045278,24.463115
18.078611,24.463115
18.111944,24.463115
18.145278,24.463115
18.178611,24.463115
18.211944,24.366331
18.245278,24.366331
18.278611,24.366331
18.311944,24.366331
18.345278,24.366331
18.378611,24.366331
18.411944,24.366331
18.445278,24.366331
18.478611,24.366331
18.511944,24.366331
18.545278,24.366331
18.578611,24.366331
18.611667,24.366331
18.645,24.366331
18.678333,24.366331
18.711667,24.259869
18.745,24.259869
18.778333,24.259869
18.811667,24.259869
18.845,24.259869
18.878333,24.259869
18.911667,24.259869
18.945,24.259869
18.978333,24.259869
19.011667,24.259869
19.045,24.259869
19.078333,24.259869
19.111667,24.259869
19.145,24.259869
19.178333,24.259869
19.211667,24.259869
19.245,24.259869
19.278333,24.259869
19.311667,24.259869
19.344722,24.259869
19.378056,24.259869
19.411389,24.259869
19.444722,24.259869
19.478056,24.163085
19.511389,24.163085
19.544722,24.163085
19.578056,24.163085
19.611389,24.163085
19.644722,24.163085
19.678056,24.163085
19.711389,24.163085
19.744722,24.163085
19.778056,24.163085
19.811389,24.163085
19.844722,24.163085
19.878056,24.163085
19.911389,24.163085
19.944722,24.163085
19.978056,24.163085
20.011389,24.163085
20.044722,24.163085
20.078056,24.163085
20.111111,24.163085
20.144444,24.163085
20.177778,24.163085
20.211111,24.163085
20.244444,24.163085
20.277778,24.163085
20.311111,24.163085
20.344444,24.163085
20.377778,24.163085
20.411111,24.163085
20.444444,24.163085
20.477778,24.163085
20.511111,24.163085
20.544444,24.163085
20.577778,24.163085
20.611111,24.163085
20.644444,24.163085
20.677778,24.163085
20.711111,24.163085
20.744444,24.163085
20.777778,24.163085
20.811111,24.066301
20.844444,24.066301
20.8775,24.066301
20.910833,24.066301
20.944167,24.066301
20.9775,24.066301
21.010833,24.066301
21.044167,24.066301
21.0775,24.066301
21.110833,24.066301
21.144167,24.066301
21.1775,24.066301
21.210833,24.066301
21.244167,24.066301
21.2775,24.066301
21.310833,24.066301
21.344167,24.066301
21.3775,24.066301
21.410833,24.066301
21.444167,24.066301
21.4775,24.066301
21.510833,24.066301
21.544167,24.066301
21.5775,24.066301
21.610833,24.066301
21.643889,24.066301
21.677222,24.066301
21.710556,24.066301
21.743889,24.066301
21.777222,24.066301
21.810556,24.066301
21.843889,24.066301
21.877222,24.066301
21.910556,24.066301
21.943889,24.066301
21.977222,24.066301
22.010556,24.066301
22.043889,24.066301
22.077222,24.066301
22.110556,24.066301
22.143889,24.066301
22.177222,24.066301
22.210556,24.066301
22.243889,24.066301
22.277222,24.066301
22.310556,24.066301
22.343889,24.066301
22.377222,24.066301
22.410278,23.959839
22.443611,23.959839
22.476944,23.959839
22.510278,23.959839
22.543611,23.959839
22.576944,23.959839
22.610278,23.959839
22.643611,23.959839
22.676944,23.959839
22.710278,23.959839
22.743611,23.959839
22.776944,23.959839
22.810278,23.959839
22.843611,23.959839
22.876944,23.959839
22.910278,23.959839
22.943611,23.959839
22.976944,23.959839
23.010278,23.959839
23.043611,23.959839
23.076944,23.959839
23.110278,23.959839
23.143611,23.959839
23.176667,23.959839
23.21,23.959839
23.243333,23.959839
23.276667,23.959839
23.31,23.959839
23.343333,23.959839
23.376667,23.959839
23.41,23.959839
23.443333,23.959839
23.476667,23.959839
23.51,23.959839
23.543333,23.959839
23.576667,23.959839
23.61,23.959839
23.643333,23.863055
23.676667,23.959839
23.71,23.863055
23.743333,23.863055
23.776667,23.863055
23.81,23.863055
23.843333,23.863055
23.876667,23.863055
23.91,23.863055
23.943056,23.959839
23.976389,23.959839
24.009722,23.959839
24.043056,24.066301
24.076389,24.066301
24.109722,24.066301
24.143056,24.066301
24.176389,24.066301
24.209722,24.066301
24.243056,24.066301
24.276389,24.163085
24.309722,24.163085
24.343056,24.163085
24.376389,24.163085
24.409722,24.163085
24.443056,24.163085
24.476389,24.163085
24.509722,24.163085
24.543056,24.163085
24.576389,24.163085
24.609722,24.163085
24.643056,24.163085
24.676111,24.163085
24.709444,24.259869
24.742778,24.259869
24.776111,24.259869
24.809444,24.259869
24.842778,24.259869
24.876111,24.259869
24.909444,24.259869
24.942778,24.259869
24.976111,24.259869
25.009444,24.259869
25.042778,24.259869
25.076111,24.259869
25.109444,24.366331
25.142778,24.366331
25.176111,24.366331
25.209444,24.366331
25.242778,24.366331
25.276111,24.366331
25.309444,24.366331
25.342778,24.366331
25.376111,24.366331
25.409444,24.366331
25.4425,24.366331
25.475833,24.366331
25.509167,24.366331
25.5425,24.366331
25.575833,24.366331
25.609167,24.366331
25.6425,24.366331
25.675833,24.366331
25.709167,24.366331
25.7425,24.366331
25.775833,24.366331
25.809167,24.366331
25.8425,24.366331
25.875833,24.366331
25.909167,24.366331
25.9425,24.366331
25.975833,24.366331
26.009167,24.366331
26.0425,24.366331
26.075833,24.366331
26.109167,24.366331
26.1425,24.366331
26.175833,24.366331
26.208889,24.366331
26.242222,24.366331
26.275556,24.366331
26.308889,24.366331
26.342222,24.366331
26.375556,24.259869
26.408889,24.259869
26.442222,24.259869
26.475556,24.259869
26.508889,24.163085
26.542222,24.163085
26.575556,24.163085
26.608889,24.163085
26.642222,24.066301
26.675556,24.066301
26.708889,24.066301
26.742222,24.066301
26.775556,24.066301
26.808889,24.066301
26.842222,24.066301
26.875556,23.959839
26.908889,23.959839
26.942222,23.959839
26.975278,23.959839
27.008611,23.959839
27.041944,23.959839
27.075278,23.959839
27.108611,23.959839
27.141944,23.959839
27.175278,23.959839
27.208611,23.959839
27.241944,23.863055
27.275278,23.863055
27.308611,23.863055
27.341944,23.863055
27.375278,23.863055
27.408611,23.863055
27.441944,23.863055
27.475278,23.863055
27.508611,23.863055
27.541944,23.863055
27.575278,23.863055
27.608611,23.863055
27.641944,23.863055
27.675278,23.863055
27.708611,23.863055
27.741667,23.863055
27.775,23.863055
27.808333,23.863055
27.841667,23.766271
27.875,23.766271
27.908333,23.766271
27.941667,23.766271
27.975,23.766271
28.008333,23.766271
28.041667,23.766271
28.075,23.766271
28.108333,23.766271
28.141667,23.766271
28.175,23.766271
28.208333,23.766271
28.241667,23.766271
28.275,23.766271
28.308333,23.766271
28.341667,23.766271
28.375,23.766271
28.408333,23.766271
28.441667,23.766271
28.475,23.766271
28.508056,23.766271
28.541389,23.766271
28.574722,23.766271
28.608056,23.766271
28.641389,23.766271
28.674722,23.766271
28.708056,23.766271
28.741389,23.766271
28.774722,23.659809
28.808056,23.766271
28.841389,23.659809
28.874722,23.659809
28.908056,23.659809
28.941389,23.659809
28.974722,23.659809
29.008056,23.659809
29.041389,23.659809
29.074722,23.659809
29.108056,23.659809
29.141389,23.659809
29.174722,23.659809
29.208056,23.659809
29.241389,23.659809
29.274444,23.659809
29.307778,23.659809
29.341111,23.659809
29.374444,23.659809
29.407778,23.659809
29.441111,23.659809
29.474444,23.659809
29.507778,23.659809
29.541111,23.659809
29.574444,23.659809
29.607778,23.659809
29.641111,23.659809
29.674444,23.659809
29.707778,23.659809
29.741111,23.659809
29.774444,23.659809
29.807778,23.659809
29.841111,23.659809
29.874444,23.659809
29.907778,23.659809
29.941111,23.659809
29.974444,23.659809
30.007778,23.659809
30.040833,23.659809
30.074167,23.659809
30.1075,23.659809
30.140833,23.659809
30.174167,23.563025
30.2075,23.563025
30.240833,23.563025
30.274167,23.563025
30.3075,23.563025
30.340833,23.563025
30.374167,23.563025
30.4075,23.563025
30.440833,23.563025
30.474167,23.563025
30.5075,23.563025
30.540833,23.563025
30.574167,23.563025
30.6075,23.563025
30.640833,23.563025
30.674167,23.563025
30.7075,23.563025
30.740833,23.563025
30.774167,23.563025
30.807222,23.563025
30.840556,23.563025
30.873889,23.563025
30.907222,23.563025
30.940556,23.563025
30.973889,23.563025
31.007222,23.563025
31.040556,23.563025
31.073889,23.563025
31.107222,23.563025
31.140556,23.563025
31.173889,23.563025
31.207222,23.563025
31.240556,23.563025
31.273889,23.563025
31.307222,23.563025
31.340556,23.563025
31.373889,23.563025
31.407222,23.563025
31.440556,23.563025
31.473889,23.563025
31.507222,23.563025
31.540278,23.563025
31.573611,23.563025
31.606944,23.563025
31.640278,23.563025
31.673611,23.563025
31.706944,23.563025
31.740278,23.563025
31.773611,23.563025
31.806944,23.563025
31.840278,23.563025
31.873611,23.466241
31.906944,23.563025
31.940278,23.563025
31.973611,23.466241
32.006944,23.466241
32.040278,23.466241
32.073611,23.466241
32.106944,23.466241
32.140278,23.466241
32.173611,23.466241
32.206944,23.466241
32.240278,23.466241
32.273611,23.466241
32.306667,23.466241
32.34,23.466241
32.373333,23.466241
32.406667,23.466241
32.44,23.466241
32.473333,23.466241
32.506667,23.466241
32.54,23.466241
32.573333,23.466241
32.606667,23.466241
32.64,23.466241
32.673333,23.466241
32.706667,23.466241
32.74,23.466241
32.773333,23.466241
32.806667,23.466241
32.84,23.466241
32.873333,23.466241
32.906667,23.466241
32.94,23.466241
32.973333,23.466241
33.006667,23.466241
33.04,23.466241
33.073056,23.466241
33.106389,23.466241
33.139722,23.466241
33.173056,23.466241
33.206389,23.466241
33.239722,23.466241
33.273056,23.466241
33.306389,23.466241
33.339722,23.466241
33.373056,23.466241
33.406389,23.466241
33.439722,23.466241
33.473056,23.466241
33.506389,23.466241
33.539722,23.466241
33.573056,23.466241
33.606389,23.466241
33.639722,23.359779
33.673056,23.359779
33.706389,23.359779
33.739722,23.359779
33.773056,23.359779
33.806389,23.359779
33.839444,23.359779
33.872778,23.359779
33.906111,23.359779
33.939444,23.359779
33.972778,23.359779
34.006111,23.359779
34.039444,23.359779
34.072778,23.359779
34.106111,23.359779
34.139444,23.359779
34.172778,23.359779
34.206111,23.359779
34.239444,23.359779
34.272778,23.359779
34.306111,23.359779
34.339444,23.359779
34.372778,23.359779
34.406111,23.359779
34.439444,23.359779
34.472778,23.359779
34.506111,23.359779
34.539444,23.359779
34.572778,23.359779
34.605833,23.359779
34.639167,23.359779
34.6725,23.359779
34.705833,23.359779
34.739167,23.359779
34.7725,23.359779
34.805833,23.359779
34.839167,23.359779
34.8725,23.359779
34.905833,23.359779
34.939167,23.359779
34.9725,23.359779
35.005833,23.359779
35.039167,23.359779
35.0725,23.359779
35.105833,23.359779
35.139167,23.359779
35.1725,23.359779
35.205833,23.359779
35.239167,23.359779
35.2725,23.359779
35.305833,23.359779
35.339167,23.359779
35.372222,23.359779
35.405556,23.359779
35.438889,23.359779
35.472222,23.359779
35.505556,23.359779
35.538889,23.359779
35.572222,23.359779
35.605556,23.359779
35.638889,23.262995
35.672222,23.359779
35.705556,23.359779
35.738889,23.262995
35.772222,23.262995
35.805556,23.262995
