time,pressure
0.0,124.32294
1.221111,117.470642
2.613333,112.060424
4.223056,106.746989
5.563056,103.659584
6.901667,100.514108
8.143333,98.075154
9.417222,95.926552
10.716667,94.107015
12.023611,92.558473
14.379444,89.935631
15.668333,88.745189
16.994722,87.680566
18.258333,86.635301
19.489167,87.264396
20.781667,87.816064
22.1525,87.883812
23.400278,87.71928
24.714722,87.448285
26.006944,87.196647
27.518889,87.051471
28.966111,86.848225
30.424722,86.596587
32.038889,86.335271
35.356111,84.496377
38.435278,82.744589
38.435556,82.744589
41.672778,81.012158
43.315833,80.170138
44.972222,79.221656
46.515278,78.505455
48.022778,77.93443
49.423333,77.489225
51.113056,76.898843
52.562778,76.463316
54.0525,76.027788
55.570833,75.708401
56.980556,75.350301
58.992778,74.682492
62.13,73.530764
62.776944,73.308161
64.402222,72.620996
65.749444,72.098363
67.374722,71.498303
69.013611,70.820816
70.545278,70.259469
72.070556,69.746515
74.989722,69.001279
75.646667,69.001279
76.3925,68.6335
77.8175,68.188295
79.284444,67.897943
80.685,67.607591
82.118889,67.355953
83.401944,67.123672
86.551944,66.610717
87.4125,66.455863
88.811111,66.262295
90.2875,66.049371
92.504167,65.691271
94.096111,65.526738
95.51,65.362205
97.146389,65.168638
98.551667,65.023462
99.831944,64.858929
101.396944,64.694397
102.928611,64.520186
104.409167,64.278226
105.938889,68.894817
107.363889,75.931004
111.074444,73.830794
112.497222,74.363106
114.004444,76.550421
115.442778,77.93443
116.967778,79.173264
118.412778,79.812038
119.942222,80.431454
121.286944,80.963766
122.5675,81.370258
124.021389,81.77675
125.541944,82.415524
126.951389,81.389615
128.349722,80.721806
129.605556,80.257243
131.063889,79.773324
134.712222,78.970018
135.276944,78.902269
136.913333,78.766772
138.356389,78.679666
139.923611,78.602239
141.390833,78.582882
142.713611,78.553847
144.131667,78.544169
145.538889,78.553847
147.144167,78.311888
149.018611,78.079606
150.490556,78.079606
152.002222,77.93443
153.391944,77.866682
154.832778,115.68014
156.187778,115.68014
156.280278,101.936831
158.728056,91.406745
160.6425,85.609391
162.127778,82.405845
163.570556,80.141103
165.073611,77.915074
166.961389,75.882612
168.433333,74.682492
169.782778,73.685618
171.263611,72.766172
172.559722,72.156433
174.022778,74.111467
175.441389,72.108041
176.941944,70.636926
178.275556,69.630374
179.691667,68.730284
182.706389,67.220456
182.706667,67.220456
184.062778,66.649431
185.908333,66.000979
187.221944,65.642879
188.665,65.178316
190.201389,64.694397
191.935833,64.249191
193.521111,63.910447
194.665833,63.639453
196.180278,65.739663
197.585278,65.21703
198.970556,67.104315
200.388889,66.107441
201.811389,65.323492
203.236389,64.723432
207.213611,63.610417
208.669722,63.300709
210.145833,63.049071
211.581667,62.797433
213.102222,62.545795
214.485,62.381262
215.898889,62.207051
217.373056,62.003805
218.798056,61.829594
226.256667,81.77675
227.828611,79.221656
230.703333,72.940383
232.108333,71.178916
233.491111,69.911047
235.018611,68.652857
236.448333,67.607591
237.158611,67.607591
238.089167,66.610717
239.485556,65.942909
240.953056,65.304135
242.409167,64.762145
244.116667,64.220156
245.410833,65.729984
246.836111,68.062475
248.603611,68.265722
250.395833,67.201099
252.076667,73.43398
254.876111,68.149581
256.603333,66.542969
258.311111,65.246065
259.731944,64.404045
261.261667,63.620096
262.691111,63.020036
264.2675,62.381262
265.681667,65.110567
267.124444,63.445885
268.498333,62.690971
269.820833,65.178316
271.194722,65.768698
272.488611,64.500829
274.275833,64.607291
278.715556,64.394367
279.298056,63.929804
280.65,63.010357
282.1175,62.187694
283.480278,61.413423
284.985833,60.794007
286.433056,60.281052
287.540556,59.93263
289.034444,59.506781
290.453056,59.158359
292.098056,58.809937
293.756667,60.039093
295.201944,65.93323
296.580556,66.523612
298.128056,64.220156
299.6,63.039393
302.707778,61.297283
304.112778,60.77465
305.94,60.145555
307.382778,59.748741
309.105556,59.245465
310.684167,58.809937
312.153611,58.538942
313.534167,58.258269
315.019444,57.987274
316.415833,57.764672
317.553056,57.764672
317.680833,57.609817
319.201944,57.348501
321.683056,57.067828
323.165833,56.796833
326.75,56.370984
327.319167,56.351627
328.688889,56.235486
330.162778,56.090311
331.521111,55.935456
332.963889,55.809637
334.339722,55.761245
335.704722,55.712853
337.211944,55.519286
338.488056,55.345075
340.042222,55.257969
341.429444,55.296683
343.008333,55.219256
344.457778,55.267648
346.207778,55.257969
347.637222,55.248291
350.603333,55.267648
353.735833,55.112793
355.178333,55.103115
356.588056,55.112793
358.028889,55.103115
359.442778,55.083758
360.952778,55.064401
362.402222,55.103115
363.811667,55.112793
365.321389,55.093437
366.635278,55.045045
368.149167,55.045045
369.607222,55.054723
371.174722,55.064401
374.5825,55.112793
375.436111,55.141829
377.032222,55.141829
378.639722,55.122472
380.106667,55.122472
381.669444,55.161185
383.236944,55.161185
384.666111,55.170864
386.093333,55.190221
387.429444,55.277326
388.805833,55.248291
390.286667,55.199899
391.662778,55.228934
393.230278,55.180542
394.693333,55.190221
396.156389,55.170864
398.661944,55.151507
399.21,55.151507
400.391389,55.180542
401.91,55.151507
403.321944,55.141829
404.736111,55.151507
406.208056,55.141829
407.493056,55.13215
409.020556,55.122472
410.43,55.13215
411.930556,55.161185
413.106389,55.103115
414.331389,55.083758
415.596389,55.054723
416.81,55.083758
418.190556,55.083758
419.522222,55.054723
422.688056,56.777476
423.928611,55.964492
425.391667,55.722532
426.778611,55.519286
428.214722,55.412823
429.515278,55.383788
430.998056,55.31604
432.374167,55.257969
435.466389,55.190221
436.8425,55.161185
438.256389,55.13215
440.035278,55.112793
441.936111,55.141829
443.757222,55.112793
446.563056,55.083758
448.108333,55.093437
449.6425,55.083758
451.061111,55.045045
452.575278,55.064401
454.033611,55.07408
455.445556,55.035366
456.835278,55.025688
458.333611,58.442159
459.796389,56.825868
461.661667,56.235486
462.924444,56.061275
464.311667,55.838672
465.97,55.712853
467.2975,55.596713
470.672778,55.37411
471.609167,56.893617
472.95,56.245165
474.296667,56.003205
475.546389,55.828994
476.913056,55.693497
478.224167,55.577356
479.541944,55.480572
479.675,55.480572
480.812778,55.364431
482.160833,55.277326
483.425556,55.238612
484.746667,55.180542
486.333333,55.383788
487.908333,54.938582
489.211389,54.725658
490.581667,54.551447
491.9425,54.348201
495.609444,60.290731
496.970833,65.623522
498.323333,62.584508
499.601667,61.926378
500.940556,61.394067
502.208611,61.094037
503.471111,60.83272
504.786944,60.610117
506.1425,60.542369
507.451111,60.484298
508.576389,60.377836
509.949722,60.271374
511.375,60.242339
512.718889,60.300409
514.066944,60.358479
515.52,60.368158
518.4675,60.464942
519.18,60.435906
520.474444,60.406871
521.739722,60.135876
522.943333,59.777776
524.261111,59.439033
525.550278,59.206751
526.78,59.042219
528.1225,58.809937
529.370833,58.722832
530.577222,58.538942
531.93,58.355053
533.226389,58.277626
534.502778,58.142129
535.783889,58.025988
537.108611,57.938882
538.378333,57.842099
539.611389,57.725958
542.454722,57.590461
543.488889,57.542069
544.977778,57.41625
546.2675,57.348501
547.505278,57.271074
548.81,57.222682
550.139722,57.125898
551.5425,57.038792
552.778611,56.922652
554.429444,56.942009
555.721111,56.893617
557.14,56.796833
559.087222,56.845225
559.9825,56.845225
561.375556,56.729084
562.791667,56.622622
564.146944,56.564552
566.540278,56.487124
568.038889,56.390341
569.303056,56.429054
570.571389,56.545195
571.944167,56.409697
573.255278,56.341949
574.557222,56.380662
575.835556,56.322592
577.142222,56.254843
578.455556,56.390341
579.706389,56.33227
581.006667,56.322592
582.2775,56.235486
583.561389,56.196773
584.764444,56.177416
586.107778,56.187094
587.399167,56.196773
590.546667,56.138702
591.346111,56.109667
592.611111,56.051597
593.978056,56.022562
595.300278,56.012883
596.608889,55.964492
597.941944,56.051597
599.228333,55.97417
600.4925,55.964492
601.806111,55.925778
603.146667,55.9161
604.441111,55.935456
605.568056,55.9161
606.906667,55.896743
608.212222,55.877386
609.916111,55.858029
611.224444,55.906421
614.430833,55.809637
614.431111,55.809637
615.115,55.828994
616.438889,55.828994
617.770278,55.780602
619.122778,55.73221
620.186667,55.751567
621.503889,55.712853
622.767222,55.664461
624.089722,55.683818
625.378333,55.67414
626.830556,55.645105
629.630556,55.61607
631.031667,55.587034
632.376944,55.587034
633.706667,55.722532
635.267778,55.945135
638.401944,55.828994
639.131944,55.799959
640.416944,55.858029
641.568056,55.858029
641.902778,55.770924
643.188889,55.722532
644.592222,55.703175
645.972778,55.645105
647.259444,55.587034
648.538611,55.587034
649.760278,55.635426
651.100556,55.577356
652.316389,55.557999
653.531667,55.528964
654.773333,55.577356
656.608333,55.538642
658.0675,55.625748
659.362222,55.606391
662.517778,55.625748
663.288056,55.635426
664.575,55.596713
665.800556,55.557999
667.128889,55.557999
668.448056,55.548321
669.749722,55.528964
671.11,55.625748
672.386944,55.625748
673.774444,55.567678
675.139444,55.557999
676.393611,55.587034
677.683333,55.577356
678.98,55.577356
680.249722,55.741889
681.536389,55.751567
682.93,55.848351
684.236111,55.770924
686.555,55.838672
688.302778,55.790281
689.595,55.761245
690.960833,55.722532
692.295556,55.645105
693.574722,55.606391
694.939167,55.635426
696.207778,55.654783
697.499167,55.625748
698.779722,55.606391
700.218333,55.635426
701.551667,55.635426
702.808333,55.625748
704.175278,55.635426
705.602222,55.635426
707.016944,55.703175
708.335,55.693497
710.419167,55.790281
712.114167,55.780602
713.405278,55.770924
714.665278,55.741889
715.986389,55.703175
717.275278,55.790281
718.558889,55.780602
719.8175,55.741889
721.173056,55.683818
721.7125,55.683818
722.559722,55.683818
723.816389,55.654783
725.133056,55.596713
726.485278,55.587034
727.810833,55.635426
729.098333,55.557999
730.448333,55.557999
731.775833,55.538642
734.465556,55.528964
735.739167,55.528964
737.127222,55.567678
738.450833,55.567678
739.758611,55.577356
741.146111,55.606391
742.458056,55.606391
743.778611,55.645105
745.108056,55.693497
746.265833,55.741889
747.5775,55.761245
748.954167,55.761245
750.233889,55.945135
751.613889,55.867708
751.908889,55.848351
753.121389,55.867708
754.421667,55.838672
755.566944,55.964492
758.464444,55.935456
759.426944,56.03224
761.231389,55.993527
764.451667,56.080632
765.983611,56.138702
767.410556,56.041919
768.900833,55.964492
770.449167,55.964492
772.014167,55.867708
773.465,55.828994
774.971944,55.877386
776.953056,55.809637
778.471389,55.819316
780.18,55.819316
782.754444,55.761245
784.7575,55.770924
786.178611,55.799959
787.511667,55.751567
788.925833,55.722532
790.309167,55.712853
791.620833,55.703175
793.046111,55.722532
794.355833,55.683818
796.953333,55.654783
798.203889,55.645105
799.462778,55.645105
800.692778,55.664461
802.061111,55.780602
802.435,55.780602
803.430833,55.819316
806.51,55.819316
807.219722,55.858029
808.499167,55.780602
809.826944,55.712853
811.151667,55.712853
812.418333,55.73221
813.741111,55.654783
815.13,55.654783
816.415556,55.606391
817.580833,55.606391
818.823333,55.596713
820.188889,55.722532
821.210833,55.645105
822.574167,55.693497
824.303333,55.761245
826.155833,55.683818
827.509722,55.693497
830.518611,55.722532
831.424444,55.654783
832.701944,55.587034
834.005556,55.528964
835.196667,55.480572
836.47,55.441859
837.765278,55.383788
839.099167,55.364431
840.409722,55.37411
841.661111,55.306361
843.027222,55.277326
844.305833,55.31604
845.5675,55.277326
848.250556,55.422502
849.508889,55.345075
850.8125,55.335396
852.185278,55.277326
854.486667,55.306361
856.018611,55.248291
857.319722,55.364431
858.753611,55.335396
860.076389,55.228934
861.346389,55.199899
862.618056,55.170864
863.955,55.161185
865.247778,55.141829
866.510278,55.141829
867.806944,55.170864
869.082778,55.161185
870.363611,55.103115
871.658333,55.064401
872.948611,55.064401
874.247778,55.035366
875.425833,55.035366
878.391389,55.01601
879.1025,54.986974
880.415,54.967618
881.725556,54.986974
882.941111,54.986974
883.091944,55.01601
884.393333,54.967618
885.669167,54.880512
887.031667,54.890191
888.361944,54.841799
889.683056,54.822442
891.09,54.870834
892.376111,54.822442
893.675556,54.83212
894.899722,54.841799
895.031389,54.822442
896.348333,54.783728
897.588056,54.754693
898.920278,54.725658
900.181944,54.783728
902.317778,54.735336
903.6675,54.71598
904.999722,54.677266
906.375833,54.648231
907.67,54.696623
908.977222,54.706301
910.260278,54.725658
911.546944,54.696623
912.829167,54.638552
914.176111,54.628874
915.405556,54.628874
919.599722,58.877686
922.465,57.919526
923.734722,57.71628
926.1625,57.290431
927.385,57.135576
928.766944,56.961365
930.123889,56.758119
931.368889,56.593587
932.608056,56.496803
933.959167,56.361305
935.211111,56.196773
936.478056,56.070954
937.747778,55.945135
939.053889,55.887064
940.276944,55.790281
941.545833,55.683818
942.817222,55.61607
944.149444,55.548321
945.435833,55.480572
946.687778,55.538642
947.750833,55.490251
951.011111,55.287004
952.958611,55.335396
954.220556,55.267648
955.476111,55.238612
956.771667,55.287004
958.234167,55.257969
959.659444,55.287004
960.961667,55.267648
962.215278,55.257969
963.473611,55.13215
963.596111,55.13215
964.720833,55.035366
966.051389,54.996653
967.319444,54.938582
968.569722,54.851477
969.898611,54.822442
971.158611,54.754693
974.373611,54.599839
974.776944,54.599839
976.193333,54.570804
977.569444,54.522412
978.97,54.435306
980.321389,54.386914
981.791111,54.319166
983.165,54.270774
984.494167,54.280452
985.979444,54.290131
987.293333,54.280452
988.820833,54.270774
990.226111,54.261095
991.711389,54.309487
993.221111,54.338522
994.939722,54.348201
996.280556,54.319166
1000.095833,54.261095
1001.398889,54.270774
1002.730833,54.280452
1004.153889,54.241739
1005.61,54.154633
1007.073056,54.154633
1008.447222,54.125598
1009.974722,54.096563
1011.362222,54.028814
1013.254444,53.970744
1015.361667,53.912673
1016.687222,53.864281
1017.991111,53.854603
1019.274444,53.796533
1022.3625,53.825568
1023.063611,53.87396
1024.531944,53.825568
1025.810278,53.796533
1027.165,53.835246
1028.451389,53.825568
1029.742222,53.825568
1031.017222,53.835246
1032.300833,53.87396
1033.596944,53.786854
1034.906111,53.796533
1036.289722,53.835246
1037.531389,53.844925
1038.818611,53.844925
1040.051111,53.902995
1041.299722,53.835246
1042.553333,53.796533
1044.092222,53.81589
1045.185278,53.81589
1046.445,53.757819
1048.104167,53.738462
1049.407222,53.738462
1050.703056,53.709427
1052.135278,53.661035
1053.437778,53.651357
1054.766389,53.680392
1056.135833,53.612643
1057.461944,53.583608
1058.708611,53.525538
1060.103611,53.57393
1061.4225,53.535216
1062.717222,53.51586
1064.076667,53.593287
1065.336667,53.51586
1066.505833,53.544895
1067.814722,53.57393
1070.396111,53.525538
1071.600278,53.506181
1072.976944,53.525538
1074.374444,53.564251
1075.741667,53.496503
1077.100833,53.467468
1078.410556,53.399719
1079.677778,53.370684
1081.123333,53.361005
1082.435278,53.351327
1083.901389,53.351327
1085.263056,53.283578
1086.906944,53.244865
1088.1825,53.235186
1089.440833,53.206151
1090.731944,53.186794
1092.068611,53.235186
1094.346389,53.351327
1095.81,53.312613
1097.121111,53.264221
1098.369722,53.206151
1099.666944,53.167438
1101.049167,53.244865
1102.351667,53.244865
1103.651111,53.293257
1105.091111,53.283578
1106.348889,53.312613
1107.591389,53.283578
1108.900833,53.264221
1110.186111,53.302935
1111.478889,53.467468
1112.774444,53.457789
1114.144444,53.477146
1115.445556,53.506181
1118.383056,53.428754
1119.130556,53.457789
1120.527778,53.506181
1121.770833,53.428754
1123.103056,53.370684
1124.372222,53.312613
1125.615556,53.428754
1125.946389,53.428754
1126.945,53.506181
1128.226944,53.457789
1129.521944,53.457789
1130.975278,53.477146
1132.409444,53.370684
1133.740556,53.380362
1135.215278,53.322292
1136.586944,53.244865
1137.908889,53.244865
1139.198333,53.2739
1142.440278,53.2739
1143.0575,53.293257
1144.343611,53.264221
1145.633611,53.225508
1146.962778,53.196473
1148.236944,53.167438
1149.564722,53.128724
1150.939167,53.128724
1152.236389,53.186794
1153.546944,53.186794
1154.788333,53.128724
1156.179444,53.070654
1158.08,53.128724
1159.343056,53.090011
1160.616944,53.119046
1161.942778,53.206151
1163.209167,53.225508
1166.127222,53.167438
1166.703889,53.138402
1168.053056,53.128724
1169.328333,53.099689
1170.633056,53.041619
1171.968611,53.128724
1173.255833,53.119046
1174.584722,53.080332
1175.923611,53.041619
1177.638611,53.060975
1179.050556,53.051297
1180.350833,53.022262
1181.663333,53.041619
1182.988889,53.022262
1185.678611,53.090011
1186.99,53.060975
1190.426389,53.157759
1191.120833,53.225508
1193.695,53.293257
1195.018611,53.283578
1196.335556,53.244865
1197.604167,53.2739
1198.948333,53.33197
1200.287778,53.341649
1201.676944,53.293257
1202.989167,53.302935
1204.339444,53.390041
1205.641667,53.438432
1205.753889,53.438432
1207.065556,53.361005
1208.299444,53.380362
1209.585556,53.390041
1210.831667,53.370684
1212.118333,53.419076
1214.369722,53.361005
1216.043889,53.351327
1217.314722,53.370684
1218.595556,53.351327
1219.908611,53.380362
1221.139444,53.390041
1222.3975,53.409397
1223.658889,53.419076
1224.967222,53.361005
1226.217222,53.390041
1227.4925,53.380362
1228.772778,53.341649
1229.998611,53.486824
1230.147222,53.486824
1231.353333,53.477146
1232.643333,53.690071
1234.018611,53.632
1235.282222,53.593287
1237.11,53.525538
1238.441111,53.486824
1239.106944,53.506181
1240.429722,53.428754
1241.729444,53.351327
1243.104722,53.467468
1244.3925,53.399719
1245.701389,53.467468
1247.031111,53.428754
1248.323333,53.419076
1249.648056,53.457789
1251.111944,53.57393
1252.921944,53.525538
1254.195,53.525538
1254.570833,53.525538
1255.583611,53.544895
1256.941944,53.544895
1258.494722,53.544895
1259.773611,53.496503
1261.590556,53.486824
1262.395833,53.467468
1263.583333,53.477146
1265.024722,53.428754
1266.404722,53.390041
1267.987778,53.409397
1269.446389,53.409397
1271.007222,53.399719
1272.348056,53.33197
1273.8175,53.302935
1275.445278,53.312613
1276.946111,53.283578
1278.611389,53.322292
1279.042222,53.322292
1280.212222,53.264221
1281.648611,53.57393
1283.145,53.57393
1285.101667,53.438432
1286.738056,53.506181
1287.462778,53.457789
1288.9525,53.457789
1290.366667,53.457789
1291.740833,53.419076
1293.155,53.370684
1294.535833,53.390041
1295.954444,53.554573
1297.368611,53.602965
1298.736111,53.680392
1300.168056,53.661035
1301.604444,53.554573
1303.105278,53.525538
1303.430833,53.525538
1304.479444,53.554573
1307.493889,53.438432
1310.440278,53.380362
1311.41,53.361005
1312.670833,53.409397
1314.033611,53.351327
1315.338889,53.312613
1316.599722,53.409397
1319.196667,53.293257
1320.431389,53.264221
1321.940833,53.254543
1322.81,53.254543
1323.605,53.235186
1325.018056,53.21583
1326.352222,53.254543
1327.650278,53.235186
1328.988611,53.196473
1330.262222,53.167438
1331.540833,53.138402
1334.259722,53.157759
1335.250278,53.138402
1336.583611,53.099689
1337.921111,53.090011
1339.244722,53.109367
1340.509444,53.157759
1341.9025,53.138402
1343.226667,53.167438
1344.526111,53.099689
1345.805278,53.099689
1347.123611,53.138402
1349.609722,53.157759
1350.936667,53.138402
1352.203611,53.177116
1353.484722,53.157759
1354.770278,53.283578
1356.04,53.351327
1358.467222,53.264221
1359.908056,53.264221
1361.181667,53.254543
1362.516389,53.264221
1363.78,53.254543
1365.135833,53.293257
1366.421944,53.2739
1367.694444,53.302935
1369.080833,53.351327
1370.344444,53.370684
1371.593611,53.409397
1372.948611,53.419076
1374.202222,53.399719
1375.3925,53.409397
1376.673889,53.370684
1378.331667,53.351327
1379.620278,53.351327
1382.335,53.380362
1383.322222,53.380362
1384.218056,53.380362
1384.637778,53.351327
1385.977778,53.380362
1387.273889,53.380362
1388.572222,53.33197
1389.9425,53.293257
1391.190556,53.312613
1392.450833,53.293257
1393.713611,53.302935
