time,pressure
0.0,70.847094
0.483889,70.847094
1.013611,70.856772
1.514722,69.386622
2.034167,68.246505
2.505556,67.09671
2.986667,66.09693
3.500278,65.526871
4.050278,64.996494
4.583611,64.506767
5.144722,64.006393
5.7325,63.516665
5.732778,63.516665
6.588333,62.816916
7.132222,62.41623
7.645556,62.056193
8.261389,61.656475
8.743056,61.346766
9.311667,60.996407
9.833889,60.696376
10.318889,60.426349
10.781111,60.186324
11.340556,59.89694
11.836111,59.63659
12.361944,59.386887
12.887778,59.146863
13.419444,58.896192
13.930278,58.676492
14.475,58.446146
15.021944,58.216768
15.587222,57.986421
16.141944,57.7764
16.593889,57.616706
17.127778,57.416363
17.635556,57.246991
18.125278,57.066972
18.638889,56.896632
19.141111,56.726292
19.668333,56.55692
20.2325,56.366255
20.658611,56.236565
21.206111,56.066225
21.700278,55.906531
22.238889,55.756515
22.701389,55.616178
23.231111,55.466163
23.726389,55.316148
24.220278,55.186457
24.701389,55.056766
25.239444,54.916429
25.774722,54.77706
26.331667,54.636723
27.384444,54.38702
27.983056,54.246683
28.463611,54.126671
28.555,54.116993
29.0875,53.99698
29.838056,53.806316
30.314167,53.706628
30.793056,53.616619
31.296111,53.506285
31.795556,53.406597
32.335556,53.286585
32.819444,53.186897
33.368333,53.076563
33.803056,52.986554
34.3525,52.886867
34.766111,52.806536
35.262778,52.716527
35.786667,52.616839
36.308056,52.516183
36.811111,52.426174
37.33,52.326487
37.776111,52.246156
38.289444,52.146468
38.739444,52.067105
39.305556,51.96645
39.85,51.87644
40.3775,51.786431
40.908611,51.686744
41.448333,51.596734
41.924722,51.516404
42.430833,51.437041
42.923333,51.35671
43.464444,51.266701
43.973889,51.18637
44.451667,51.107007
44.9875,51.026676
45.920833,50.886339
46.466111,50.79633
47.024167,50.716967
47.52,50.646314
48.063333,50.556305
48.694722,50.466296
49.154167,50.396611
49.629167,50.326927
50.114444,50.256274
50.646111,50.18659
51.29,50.096581
52.187222,49.976568
52.723056,49.896238
53.3,49.826553
53.780556,49.766547
54.326111,49.686216
54.801111,49.62621
55.338333,49.566204
55.859167,49.486841
56.4125,49.416188
56.84,49.356182
57.429167,49.276819
57.891667,49.216813
58.376944,49.146161
58.859444,49.086155
59.441944,49.006792
59.979444,48.936139
60.493611,48.866455
61.029444,48.806448
61.507222,48.736764
61.984722,48.686436
62.487222,48.62643
63.040556,48.556745
63.554444,48.487061
64.093333,48.427055
64.585556,48.356402
65.121944,48.286718
65.656389,48.226712
66.192222,48.157027
66.640278,48.097021
67.189722,48.037015
67.651111,48.037015
67.682778,47.977009
68.276111,47.917002
68.677778,47.917002
68.803056,47.84635
69.385,47.776666
69.905,47.726338
70.447222,47.666332
70.996667,47.616972
71.549167,47.566644
72.053889,47.536641
72.498333,47.486313
72.987222,47.45631
73.466111,47.436953
73.970556,47.396304
74.485,47.356622
75.369444,47.296616
75.991111,47.246289
76.483611,47.206607
77.030556,47.146601
77.521389,47.106919
78.048611,47.076916
78.491667,47.046913
78.975278,47.006264
79.462778,46.956904
79.983889,46.916255
80.461944,46.886252
80.890556,46.84657
81.4425,46.806889
81.985278,46.736236
82.500278,46.716879
82.980278,46.666552
83.481944,46.616224
83.924444,46.596867
84.438333,46.536861
84.865,46.516536
85.433333,46.45653
85.938333,46.426527
86.462222,46.376199
86.975556,46.32684
87.478056,46.296836
88.133611,46.23683
88.623889,46.216506
89.101944,46.156499
89.523333,46.126496
90.055,46.096493
90.489167,46.056812
90.999167,46.016163
91.540278,45.986159
92.076111,45.926153
92.659444,45.886472
93.201389,45.84679
93.773889,45.807109
94.296111,45.777106
94.736944,45.726778
95.259167,45.696775
95.695,45.666772
96.166111,45.62709
96.582778,45.597087
97.0925,45.556438
97.569167,45.516757
98.201389,45.477075
98.718056,45.426747
100.360833,45.306735
101.012222,45.256407
101.619722,45.186723
102.189444,45.15672
102.756944,45.106392
103.373333,45.036707
103.936389,44.997026
104.562222,44.967023
105.210278,44.886692
105.807778,44.866367
106.507222,44.826686
107.118333,44.776358
107.756667,44.726998
108.406944,44.67667
109.049444,44.616664
109.591667,44.586661
110.265,44.54698
110.779722,44.486974
111.411667,44.456971
112.017778,44.396964
112.5225,44.366961
113.130833,44.316634
113.735833,44.256627
114.2975,44.246949
114.869722,44.196621
115.531389,44.15694
116.1675,44.106612
116.761389,44.076609
117.391667,44.026281
118.0225,43.9866
118.600278,43.926594
119.304722,43.896591
119.877778,43.866587
120.511111,43.81626
121.200278,43.776578
121.787778,43.72625
122.465278,43.676891
123.333056,43.626563
124.035556,43.586881
124.577222,43.576235
125.2825,43.516229
125.899167,43.456223
126.515833,43.406863
127.175556,43.356535
127.738889,43.296529
128.399167,43.246201
129.012778,43.20652
129.605556,43.166838
130.253056,43.116511
130.845833,43.066183
131.525,43.026501
132.203056,42.98682
132.795,42.946171
133.408333,42.896811
134.037778,42.856161
134.624444,42.81648
135.303889,42.776798
135.9,42.736149
136.481944,42.696468
137.131389,42.656786
137.731944,42.617105
138.36,42.566777
138.9325,42.536774
139.610556,42.497092
140.303611,42.456443
140.862778,42.416761
141.259167,42.386758
141.660278,42.37708
142.269167,42.336431
142.8225,42.296749
143.440278,42.266746
143.858056,42.246421
144.253333,42.227065
144.681389,42.186415
145.146667,42.156412
145.619167,42.137055
146.1125,42.116731
146.26,42.116731
146.600556,42.086728
147.321944,42.086728
147.48,42.0364
148.038056,41.996718
148.548889,41.976394
149.048611,41.957037
149.586667,41.927034
150.118056,41.906709
150.635833,41.876706
151.288056,41.837025
151.869167,41.807022
152.528611,41.766372
153.156111,41.736369
153.731389,41.706366
154.354722,41.666685
154.986111,41.636682
155.5625,41.606678
156.178333,41.566997
156.789167,41.546672
157.45,41.526348
158.021111,41.506991
158.631389,41.456663
159.298333,41.436338
159.881667,41.406335
160.503056,41.376332
161.182222,41.306648
161.760278,41.25632
162.338056,41.216638
162.913889,41.166311
163.533333,41.116951
164.153333,41.086948
164.785278,41.026942
165.421944,40.956289
166.104722,40.896283
166.7025,40.86628
167.286667,40.796595
167.7625,40.776271
168.299444,40.736589
168.867222,40.696908
169.365,40.676583
169.885,40.616577
170.447222,40.566249
170.978889,40.556571
171.437222,40.526568
172.472778,40.496565
172.974722,40.446237
173.466667,40.42688
173.992222,40.406555
174.476389,40.396877
175.001389,40.366874
175.513611,40.346549
175.991944,40.326225
176.488333,40.296222
176.993333,40.276865
177.442222,40.226537
177.925833,40.206212
178.801667,40.146206
179.354444,40.136528
179.829167,40.096846
180.339167,40.056197
180.759722,40.046519
181.808889,39.946831
182.294444,39.916828
182.784444,39.886825
183.331667,39.876179
183.826667,39.846175
184.349167,39.796816
184.873333,39.766813
185.408889,39.756166
185.911667,39.716485
186.4475,39.686482
186.968611,39.666157
187.466944,39.616797
187.925833,39.576148
188.5175,39.526788
189.039444,39.506463
189.093889,39.496785
189.580833,39.47646
190.1475,39.446457
190.6625,39.397097
191.093611,39.376773
191.567778,39.326445
192.011389,39.296442
192.518056,39.25676
193.038611,39.247082
193.535833,39.206433
194.083056,39.166751
194.556944,39.157073
195.096667,39.116423
195.411667,39.097066
195.557778,39.076742
195.558056,39.076742
195.675,39.076742
195.755833,39.046739
196.8575,39.007057
197.363056,38.95673
197.746944,38.966408
198.222778,38.936405
198.755556,38.917048
199.303056,38.876399
199.808889,38.857042
200.263333,38.836717
200.735556,38.797036
201.298611,38.756386
201.821389,38.746708
202.313056,38.716705
202.778056,38.716705
203.254722,38.677023
203.709722,38.656699
204.17,38.617017
204.668333,38.576368
205.127778,38.536686
205.6025,38.527008
206.149167,38.486359
206.697222,38.436999
207.166389,38.39635
207.723611,38.34699
208.263611,38.326665
208.776667,38.30634
209.335,38.25698
209.859444,38.236656
210.397222,38.196974
210.911944,38.156325
211.4775,38.126322
212.073333,38.08664
212.6075,38.056637
213.362778,38.016956
213.845278,37.976306
214.428889,37.95695
215.506667,37.86694
215.980833,37.86694
216.436667,37.826291
216.92,37.806934
217.467778,37.766285
218.032222,37.716925
218.520556,37.6966
218.935833,37.686922
219.523333,37.666597
220.382222,37.626916
220.878611,37.586267
221.417222,37.556263
221.905833,37.546585
222.400833,37.52626
222.874444,37.496257
223.345556,37.466254
223.7875,37.446897
224.266944,37.406248
224.731389,37.386891
225.240278,37.376245
225.737778,37.336563
226.233611,37.326885
226.768056,37.30656
227.331944,37.276557
227.8025,37.236876
228.282778,37.206873
228.650833,37.216551
229.224444,37.186548
229.747778,37.166223
230.273056,37.13622
230.749722,37.08686
231.278056,37.056857
231.791389,37.046211
232.312778,37.016208
232.815556,36.976527
233.288889,36.976527
233.710556,36.956202
234.163056,36.926199
234.588056,36.91652
235.111111,36.876839
235.584722,36.846836
236.122222,36.83619
236.649444,36.796508
237.177222,36.74618
237.659167,36.706499
238.128611,36.706499
238.226944,36.686174
238.681389,36.666817
239.201389,36.636814
239.839722,36.586487
240.355556,36.556484
240.815278,36.52648
241.348611,36.496477
241.775556,36.456796
242.270833,36.436471
242.765833,36.426793
243.529722,36.387111
244.335278,36.357108
244.770278,36.336784
245.276944,36.306781
245.768056,36.276777
246.250278,36.256453
246.727222,36.237096
247.22,36.22645
247.714167,36.207093
248.207222,36.17709
248.573889,36.147087
249.092778,36.126762
249.521944,36.117084
250.036667,36.106437
250.489167,36.057078
250.928611,36.046431
251.502222,36.027074
252.031111,36.016428
252.511389,35.997071
253.003056,35.967068
253.476389,35.946744
253.98,35.916741
254.435556,35.877059
254.999444,35.856734
255.5075,35.817053
255.979722,35.806407
256.482778,35.776404
256.991667,35.757047
257.498333,35.736722
257.935556,35.716397
258.176389,35.716397
258.4,35.686394
258.824167,35.676716
259.196389,35.676716
259.361667,35.656391
259.771111,35.626388
260.706667,35.596385
261.248056,35.566382
261.782222,35.536379
262.2975,35.517022
262.761944,35.506376
263.339444,35.476373
263.831389,35.44637
264.292778,35.436691
264.777222,35.416367
265.253889,35.406688
265.624444,35.376685
266.126944,35.356361
266.582778,35.326358
267.111389,35.286676
267.448056,35.286676
267.448333,35.286676
268.428611,35.246995
268.908611,35.22667
269.472778,35.176342
269.995556,35.146339
270.409444,35.146339
270.871111,35.116336
271.399167,35.086333
271.816389,35.076655
272.339722,35.046651
272.819444,35.026327
273.365833,34.986645
273.838611,34.966321
274.371944,34.926639
274.826944,34.896636
275.363889,34.866633
291.605,35.496698
292.349167,35.367007
292.858611,35.286676
293.46,35.216991
293.9075,35.196667
294.491667,35.146339
295.016944,35.126982
295.525,35.096979
296.062778,35.086333
296.513333,35.05633
297.039167,35.036973
297.551389,35.026327
298.103333,34.996324
298.563611,34.986645
299.053611,34.966321
299.571389,34.956642
300.140278,34.936318
300.61,34.916961
301.124722,34.886958
301.601944,34.866633
302.055,34.846308
302.549722,34.83663
303.111667,34.816305
303.635833,34.786302
304.176944,34.786302
304.6,34.796948
305.120278,34.776624
305.654167,34.756299
306.189722,34.736942
306.714722,34.726296
307.250556,34.686615
307.744722,34.66629
308.264167,34.66629
308.744167,34.646933
309.048889,34.646933
309.400278,34.646933
309.854444,34.626608
310.370278,34.606284
310.908889,34.596605
311.491944,34.566602
311.973611,34.536599
312.428333,34.526921
313.089444,34.526921
313.592778,34.506596
314.099444,34.496918
314.596667,34.476593
315.076944,34.456268
315.681389,34.436912
316.625833,34.406908
317.190278,34.406908
317.789444,34.386584
318.334722,34.356581
318.767778,34.346902
319.288056,34.336256
319.855,34.316899
320.388889,34.306253
320.8625,34.286896
321.254444,34.27625
321.724444,34.27625
322.254444,34.256893
322.734722,34.246247
323.271944,34.22689
323.813333,34.22689
324.241389,34.216244
324.701111,34.206565
325.249167,34.196887
325.7775,34.186241
326.305,34.176562
326.800833,34.156238
327.266111,34.156238
327.775278,34.136881
328.309722,34.126235
328.781667,34.136881
329.311667,34.116556
329.831111,34.106878
330.3275,34.116556
330.808333,34.106878
331.463611,34.096231
331.9325,34.086553
332.559167,34.076875
333.216111,34.046872
333.821389,34.036225
334.330556,34.006222
334.834167,33.996544
335.4275,33.986865
335.897222,33.976219
336.399167,33.956862
336.901389,33.936538
337.478611,33.936538
338.058611,33.936538
339.049444,33.88621
340.334444,33.876532
340.826944,33.866853
341.412222,33.846528
341.914444,33.83685
342.422778,33.816525
342.92,33.786522
343.504167,33.786522
344.009444,33.766198
344.482778,33.756519
344.998889,33.746841
345.532778,33.726516
345.976944,33.706192
346.462778,33.696513
346.968333,33.686835
347.473056,33.656832
348.031111,33.636507
348.5,33.616182
349.018611,33.596825
349.518611,33.586179
349.996111,33.566822
350.553611,33.536819
351.080556,33.546498
351.533611,33.536819
352.120556,33.516495
352.616944,33.506816
353.267778,33.476813
353.780278,33.486492
354.31,33.466167
354.7675,33.456489
355.313333,33.456489
355.811667,33.426485
356.3175,33.406161
356.739722,33.376158
357.273889,33.356801
357.780278,33.356801
358.288056,33.336476
358.819167,33.336476
359.370278,33.317119
359.863333,33.317119
360.311111,33.296795
360.725278,33.27647
361.223611,33.266792
361.663611,33.246467
362.183889,33.216464
362.686944,33.186461
363.220833,33.186461
363.6775,33.167104
364.669722,33.126455
365.175278,33.107098
365.703611,33.086773
366.266667,33.05677
366.713056,33.047092
367.281389,33.036445
367.801111,33.006442
368.324167,32.996764
368.786667,32.976439
369.335,32.957082
369.839444,32.946436
370.350556,32.936758
370.814167,32.906755
371.320278,32.897076
371.566667,32.897076
371.840833,32.867073
372.357778,32.867073
372.5775,32.867073
372.806111,32.856427
373.33,32.856427
373.881389,32.846749
374.3975,32.816746
374.896667,32.826424
375.378611,32.816746
375.921667,32.807067
376.426111,32.796421
376.869722,32.786742
377.341944,32.777064
377.790833,32.766418
378.350556,32.756739
378.846667,32.756739
379.345,32.756739
379.864167,32.747061
380.419722,32.736415
380.899722,32.706412
381.408056,32.726736
381.976667,32.696733
382.594167,32.687055
383.096389,32.687055
383.63,32.657052
384.149444,32.657052
384.645278,32.646406
385.169444,32.636727
385.668611,32.616402
386.200833,32.606724
386.713611,32.606724
387.247222,32.586399
387.731389,32.576721
387.731667,32.576721
388.688889,32.546718
389.2675,32.537039
389.786389,32.526393
390.340278,32.507036
390.8125,32.507036
391.366944,32.477033
391.888611,32.486712
392.542222,32.456709
393.083611,32.456709
393.595,32.436384
394.237222,32.417027
394.723056,32.396702
395.281667,32.387024
395.780278,32.376378
396.331389,32.366699
396.730833,32.366699
397.2625,32.336696
397.747778,32.336696
398.264722,32.327018
398.764444,32.316372
399.285833,32.306693
400.319722,32.286369
400.846944,32.267012
401.415556,32.246687
401.926944,32.256366
402.422222,32.237009
402.869722,32.226362
403.365833,32.216684
403.902778,32.216684
404.455,32.196359
405.043611,32.177003
405.54,32.156678
406.085556,32.156678
406.5525,32.156678
407.122778,32.146999
407.590556,32.116996
408.050833,32.116996
408.456389,32.10635
408.845278,32.096672
409.375,32.096672
409.905,32.086993
410.486667,32.066669
411.105556,32.05699
411.8475,32.05699
412.557222,32.026987
413.176111,32.026987
413.693333,32.006663
414.349167,32.006663
414.859167,31.976659
415.519167,31.986338
416.112778,31.976659
416.558611,31.976659
417.204444,31.956335
417.750278,31.946656
418.369722,31.926332
418.870278,31.926332
419.485278,31.906975
420.1525,31.896329
420.599444,31.88665
421.279444,31.88665
421.745833,31.876972
422.407222,31.866326
423.045556,31.856647
423.486111,31.836322
424.153889,31.816966
424.663611,31.806319
425.300278,31.796641
425.803889,31.776316
426.412778,31.786963
426.876389,31.776316
427.559444,31.766638
428.201389,31.736635
428.688889,31.726956
429.280833,31.71631
429.798056,31.676629
430.468333,31.676629
431.020556,31.646626
431.563611,31.646626
432.088611,31.616623
432.566667,31.606944
433.098333,31.606944
433.546667,31.616623
434.123333,31.586619
434.611667,31.576941
435.186667,31.556616
435.773889,31.576941
436.648056,31.546938
437.153889,31.526613
437.675278,31.516935
438.212222,31.516935
438.699167,31.49661
439.206944,31.476286
439.7,31.486932
440.281667,31.476286
440.765278,31.466607
441.312778,31.456929
441.803611,31.436604
442.382778,31.426926
442.926111,31.406601
443.490833,31.406601
444.0025,31.386276
444.508889,31.376598
445.048889,31.376598
445.567778,31.356273
446.169167,31.356273
446.680278,31.336916
447.272778,31.316592
447.756389,31.32627
448.325278,31.296267
448.8125,31.296267
449.370278,31.286589
449.883889,31.256586
450.429167,31.266264
450.91,31.266264
451.616667,31.246907
452.2825,31.246907
452.781944,31.226583
453.383333,31.226583
453.917778,31.216904
454.468333,31.19658
455.149444,31.186901
455.688889,31.176255
456.306111,31.146252
456.780278,31.146252
457.425278,31.136573
457.909722,31.136573
458.5575,31.126895
459.243889,31.116249
459.813056,31.096892
459.813333,31.096892
460.748611,31.096892
461.400278,31.086246
462.109722,31.076567
462.630278,31.066889
463.2725,31.056243
463.777778,31.036886
464.295556,31.046564
464.796111,31.036886
465.315278,31.036886
465.818333,31.016561
466.381111,31.016561
466.889167,31.016561
467.380833,31.016561
467.852222,30.996236
468.389167,30.996236
468.907222,30.986558
469.414444,30.97688
470.100833,30.946877
470.573889,30.946877
471.091944,30.93623
471.540556,30.926552
472.153889,30.906227
472.643889,30.896549
473.130278,30.876224
473.646389,30.88687
474.1925,30.856867
474.678333,30.836543
475.272778,30.846221
475.801667,30.836543
476.4175,30.816218
476.893889,30.80654
477.375,30.796861
477.878611,30.80654
478.3425,30.786215
478.753889,30.796861
479.304722,30.776536
479.83,30.766858
480.765833,30.736855
481.283889,30.71653
481.772222,30.706852
482.311944,30.706852
482.849167,30.666203
483.3625,30.676849
484.031667,30.666203
484.791389,30.6362
485.420833,30.616843
486.022222,30.616843
486.488333,30.596518
487.184722,30.58684
487.710833,30.566515
488.255278,30.556837
488.721667,30.556837
489.213611,30.54619
489.673056,30.526833
490.213056,30.536512
490.700833,30.516187
491.255833,30.516187
491.770278,30.516187
492.301667,30.536512
492.81,30.506509
493.367222,30.506509
493.934444,30.486184
494.545833,30.466827
495.094722,30.456181
495.632222,30.456181
496.140833,30.426178
496.64,30.4165
497.256944,30.396175
497.682222,30.386497
498.257778,30.366172
498.694444,30.356493
499.195,30.336169
499.648056,30.336169
500.131111,30.316812
500.577778,30.286809
501.118333,30.276163
501.6,30.266484
502.161667,30.24616
502.641944,30.226803
503.143333,30.206478
503.688333,30.206478
504.243889,30.206478
504.747778,30.186153
505.320556,30.186153
505.837778,30.157118
506.475833,30.157118
506.981944,30.136794
507.491389,30.136794
507.911944,30.127115
508.998889,30.146472
509.480556,30.127115
510.075556,30.10679
510.606111,30.076787
511.078889,30.056463
511.637778,30.037106
512.270556,30.016781
512.758333,29.996457
513.3225,29.996457
513.765833,29.9771
514.343333,29.966453
514.796944,29.966453
515.36,29.947097
515.86,29.926772
516.384722,29.917094
516.885278,29.906447
517.464444,29.876444
518.052778,29.876444
518.545,29.876444
519.191111,29.857087
519.713056,29.857087
520.314722,29.887091
520.870278,29.876444
521.529444,29.876444
522.218056,29.836763
522.659722,29.846441
523.203056,29.827084
523.692778,29.797081
524.288056,29.797081
524.825833,29.776757
525.457778,29.786435
526.186944,29.767078
526.676667,29.756432
527.196389,29.746754
527.730833,29.746754
528.334167,29.737075
528.810833,29.726429
529.313889,29.71675
529.862778,29.677069
530.3675,29.677069
530.833333,29.677069
531.306667,29.666423
531.93,29.696426
532.805833,29.686747
533.253333,29.666423
533.685278,29.707072
534.184167,29.707072
534.663889,29.71675
535.254444,29.71675
535.786944,29.726429
536.277222,29.737075
536.725278,29.71675
537.366111,29.71675
538.138056,29.746754
538.607222,29.726429
539.295833,29.746754
