time,pressure
0.0,129.316315
0.25,127.477421
0.5,125.44496
0.75,123.993202
1.0,122.831795
1.5,120.508982
2.0,118.670089
3.0,115.476221
4.0,112.766273
5.0,110.733811
6.0,109.282053
7.0,108.798134
8.0,108.410998
9.0,108.023863
10.0,107.539944
11.0,106.862456
12.0,106.281753
13.0,105.797834
14.0,105.313914
15.0,105.023563
16.0,104.346076
18.0,103.571805
19.0,102.991102
22.083333,101.248992
24.75,100.668289
31.166667,98.151908
35.333333,97.087285
38.5,95.925879
42.083333,94.861256
45.833333,93.506282
49.25,92.054524
51.833333,91.280253
54.0,91.473821
57.666667,90.69955
60.583333,90.21563
62.333333,90.022063
64.0,89.828495
66.833333,89.344576
70.25,89.054224
72.416667,92.151308
76.166667,91.280253
82.083333,90.21563
84.0,90.022063
86.666667,89.538143
93.833333,88.860656
117.833333,87.312114
141.833333,86.344276
165.833333,85.666788
189.833333,85.086085
213.833333,84.795734
237.833333,84.602166
261.833333,84.21503
285.833333,83.827895
309.833333,83.827895
333.833333,83.731111
357.833333,83.537543
381.833333,83.634327
405.833333,83.634327
429.833333,83.731111
453.833333,83.731111
477.833333,83.343976
501.833333,83.150408
525.833333,83.150408
549.833333,83.150408
573.833333,83.150408
597.833333,83.150408
621.833333,83.150408
645.833333,83.343976
669.833333,82.95684
693.833333,79.279053
717.833333,76.278753
741.833333,75.117346
765.833333,73.95594
789.833333,72.117046
813.833333,71.633127
837.833333,72.600966
861.833333,73.278453
885.833333,71.245992
909.833333,71.245992
933.833333,70.278153
957.833333,69.794233
981.833333,69.310314
1005.833333,69.019962
1029.833333,68.729611
1053.833333,69.407098
1077.833333,68.148908
1101.833333,67.761772
1125.833333,68.826395
1149.833333,69.69745
1173.833333,69.019962
1197.833333,67.95534
1221.833333,67.374637
1245.833333,66.890717
1269.833333,66.600366
1293.833333,66.503582
1317.833333,66.21323
1341.833333,65.922879
1365.833333,65.729311
1389.833333,65.438959
1413.833333,65.342175
1437.833333,65.148608
1461.833333,64.858256
1485.833333,64.761472
1509.833333,64.664688
1533.833333,64.471121
1557.833333,64.374337
1581.833333,64.471121
1605.833333,64.374337
1629.833333,64.471121
1653.833333,64.374337
1677.833333,66.406798
1701.833333,66.310014
1725.833333,65.051824
1749.833333,64.761472
1773.833333,64.567904
1797.833333,64.471121
1821.833333,64.471121
1845.833333,64.471121
1869.833333,64.374337
1893.833333,64.374337
1917.833333,64.277553
1941.833333,64.374337
1965.833333,64.083985
1989.833333,63.987201
2013.833333,63.890417
2037.833333,63.987201
2061.833333,63.793633
2085.833333,63.503282
2109.833333,63.600066
2133.833333,63.503282
2157.833333,63.309714
2181.833333,63.21293
2205.833333,63.116146
2229.833333,62.922579
2253.833333,62.535443
2277.833333,62.245091
2301.833333,61.95474
2325.833333,61.95474
2349.833333,61.664388
2373.833333,61.567604
2397.833333,60.986901
2421.833333,61.083685
2445.833333,60.890117
2469.833333,60.69655
2493.833333,60.793333
2517.833333,61.180469
2541.833333,61.083685
2565.833333,60.986901
2589.833333,60.986901
2613.833333,61.180469
2637.833333,61.277253
2661.833333,61.083685
2685.833333,61.083685
2709.833333,61.47082
2733.833333,61.761172
2757.833333,61.761172
2781.833333,62.051524
2805.833333,62.051524
2829.833333,62.245091
2853.833333,61.95474
2877.833333,61.761172
2901.833333,61.95474
2925.833333,61.857956
2949.833333,62.341875
2973.833333,62.341875
2997.833333,62.535443
3021.833333,62.341875
3045.833333,64.277553
3069.833333,64.374337
3093.833333,64.180769
3117.833333,63.793633
3141.833333,63.503282
3165.833333,62.051524
3189.833333,60.890117
3213.833333,60.986901
3237.833333,60.309414
3261.833333,59.728711
3285.833333,62.341875
3309.833333,63.406498
3333.833333,57.599466
3357.833333,57.21233
3381.833333,56.341275
3405.833333,55.663788
3429.833333,55.567004
3453.833333,55.567004
3477.833333,69.987801
3501.833333,77.149808
3525.833333,76.472321
3549.833333,63.309714
3573.833333,59.244791
3597.833333,56.825195
3621.833333,55.47022
3645.833333,54.308814
3669.833333,53.534543
3693.833333,52.276353
3717.833333,50.824595
3741.833333,49.663188
3765.833333,48.501782
3789.833333,47.533943
3813.833333,46.566104
3837.833333,46.082185
3861.833333,45.985401
3885.833333,45.598265
3909.833333,45.21113
3933.833333,45.017562
3957.833333,46.662888
3981.833333,46.178969
4005.833333,45.501482
4029.833333,45.114346
4053.833333,44.920778
4077.833333,44.630427
4101.833333,44.823995
4125.833333,51.889217
4149.833333,46.662888
4173.833333,46.372536
4197.833333,45.888617
4221.833333,45.501482
4245.833333,45.114346
4269.833333,44.920778
4293.833333,44.727211
4317.833333,44.823995
4341.833333,44.823995
4365.833333,44.533643
4389.833333,44.630427
4413.833333,44.533643
4437.833333,44.630427
4461.833333,44.630427
4485.833333,44.823995
4509.833333,45.114346
4533.833333,46.46932
4557.833333,52.95384
4581.833333,49.856756
4605.833333,48.888917
4629.833333,48.598566
4653.833333,48.21143
4677.833333,47.921078
4701.833333,47.533943
4725.833333,47.437159
4749.833333,47.243591
4773.833333,47.146807
4797.833333,47.050024
4821.833333,47.146807
4845.833333,46.759672
4869.833333,46.46932
4893.833333,46.275753
4917.833333,46.275753
4941.833333,45.501482
4965.833333,45.888617
4989.833333,46.275753
5013.833333,45.985401
5037.833333,45.791833
5061.833333,45.501482
5085.833333,45.598265
5109.833333,47.146807
5133.833333,47.050024
5157.833333,55.95414
5181.833333,55.47022
5205.833333,54.405598
5229.833333,54.695949
5253.833333,54.695949
5277.833333,55.567004
5301.833333,55.760572
5325.833333,56.147708
5349.833333,56.631627
5373.833333,56.244491
5397.833333,56.147708
5421.833333,55.276653
5445.833333,54.986301
5469.833333,54.792733
5493.833333,55.276653
5517.833333,55.95414
5541.833333,55.47022
5565.833333,55.276653
5589.833333,54.599166
5613.833333,54.308814
5637.833333,57.018762
5661.833333,57.018762
5685.833333,54.405598
5709.833333,53.147407
5733.833333,52.373137
5757.833333,51.986001
5781.833333,51.502082
5805.833333,51.21173
5829.833333,51.114946
5853.833333,53.244191
5877.833333,55.567004
5901.833333,56.050924
5925.833333,58.857656
5949.833333,63.793633
5973.833333,65.535743
5997.833333,60.890117
6021.833333,58.47052
6045.833333,57.309114
6069.833333,58.95444
6093.833333,58.664088
6117.833333,58.276953
6141.833333,58.276953
6165.833333,58.083385
6189.833333,58.276953
6213.833333,58.95444
6237.833333,59.535143
6261.833333,59.631927
6285.833333,59.535143
6309.833333,59.438359
6333.833333,60.019062
6357.833333,60.019062
6381.833333,61.277253
6405.833333,60.309414
6429.833333,59.535143
6453.833333,59.535143
6477.833333,59.438359
6501.833333,59.438359
6525.833333,59.148008
6549.833333,59.244791
6573.833333,61.761172
6597.833333,60.115846
6621.833333,59.631927
6645.833333,59.631927
6669.833333,59.631927
6693.833333,59.631927
6717.833333,59.535143
6741.833333,61.664388
6765.833333,60.793333
6789.833333,60.406198
6813.833333,60.599766
6837.833333,60.599766
6861.833333,60.502982
6885.833333,60.69655
6981.833333,63.600066
7005.833333,63.116146
7029.833333,63.890417
7053.833333,63.890417
7077.833333,61.761172
7101.833333,60.019062
7125.833333,63.69685
7149.833333,68.536043
7173.833333,67.181069
7197.833333,64.374337
7221.833333,67.374637
7245.833333,61.95474
7269.833333,59.825495
7293.833333,58.760872
7317.833333,57.793033
7341.833333,57.018762
7365.833333,56.631627
7389.833333,55.95414
7413.833333,55.373437
7437.833333,55.083085
7461.833333,56.921979
7485.833333,55.179869
7509.833333,54.502382
7533.833333,57.309114
7557.833333,59.244791
7581.833333,57.889817
7605.833333,55.760572
7629.833333,54.599166
7653.833333,53.921678
7677.833333,53.728111
7701.833333,53.824895
7725.833333,53.437759
7749.833333,53.050624
7773.833333,52.663488
7797.833333,52.276353
7821.833333,52.179569
7845.833333,52.760272
7869.833333,52.566704
7893.833333,52.46992
7917.833333,54.115246
7941.833333,52.857056
7965.833333,52.082785
7989.833333,52.566704
8013.833333,51.889217
8037.833333,56.825195
8061.833333,55.663788
8085.833333,52.373137
8109.833333,51.114946
8133.833333,50.631027
8157.833333,50.243891
8181.833333,49.759972
8205.833333,49.663188
8229.833333,49.276053
8253.833333,49.179269
8277.833333,49.663188
8301.833333,49.95354
8325.833333,50.243891
8349.833333,50.340675
8373.833333,50.340675
8397.833333,51.308514
8421.833333,51.889217
8445.833333,53.147407
8469.833333,52.663488
8493.833333,52.566704
8517.833333,52.663488
8541.833333,52.857056
8565.833333,53.050624
8589.833333,53.050624
8613.833333,53.147407
8637.833333,53.147407
8661.833333,52.95384
8685.833333,52.95384
8709.833333,52.663488
8733.833333,52.373137
8757.833333,52.276353
8781.833333,51.986001
8805.833333,51.598866
8829.833333,49.663188
8853.833333,48.985701
8877.833333,48.308214
8901.833333,47.824295
8925.833333,47.340375
8949.833333,47.146807
8973.833333,47.146807
8997.833333,47.050024
9021.833333,46.759672
9045.833333,46.662888
9069.833333,46.566104
9093.833333,46.46932
9117.833333,46.275753
9141.833333,46.178969
9165.833333,45.888617
9189.833333,45.791833
9213.833333,45.985401
9237.833333,46.46932
9261.833333,46.275753
9285.833333,45.695049
9309.833333,45.501482
9333.833333,45.404698
9357.833333,45.695049
