time,pressure
0.0,489.449498
0.25,461.448956
0.5,449.449691
0.75,440.449759
1.0,436.449681
1.25,436.449681
1.5,434.449159
1.75,433.449381
2.0,431.449827
2.5,428.449527
3.0,425.449227
3.25,422.949299
3.5,420.949744
4.0,417.349384
4.5,414.449739
5.0,410.749692
5.5,409.449885
6.0,404.449062
6.5,400.449952
7.0,397.449652
7.5,395.44913
8.0,392.449798
8.5,389.449498
9.0,386.449197
9.5,384.349955
10.5,380.449565
11.5,374.949338
12.5,371.049916
13.5,366.249436
14.5,362.350013
15.5,357.649221
16.5,353.650111
17.5,349.749721
18.5,345.949986
19.5,343.150029
20.5,339.349326
21.5,336.449681
22.5,333.550037
22.533333,332.549291
23.5,329.749334
24.5,327.849467
25.5,325.849912
26.5,323.950044
27.5,322.050177
28.5,321.049432
29.5,320.049654
30.5,320.049654
31.5,320.049654
31.566667,320.049654
32.5,320.049654
33.5,319.149564
34.5,319.149564
35.5,319.149564
36.483333,319.149564
36.733333,319.149564
36.816667,319.149564
37.5,318.149787
38.5,318.149787
39.5,318.149787
40.5,318.149787
41.5,317.15001
42.5,317.15001
43.5,316.249919
44.5,316.249919
45.5,316.249919
46.5,315.250142
46.566667,315.250142
47.5,315.250142
48.5,313.549649
49.5,314.249397
50.066667,308.349452
50.5,308.349452
51.5,308.349452
51.566667,308.349452
52.5,308.349452
53.5,308.349452
54.5,308.349452
54.566667,308.349452
55.5,307.649705
56.5,307.649705
56.566667,307.649705
57.5,306.649927
57.966667,301.44973
58.5,301.44973
59.5,301.44973
60.5,301.44973
61.5,300.649327
62.5,300.649327
63.5,300.649327
64.5,299.64955
64.65,299.64955
65.5,299.64955
65.65,294.349665
66.5,294.349665
67.5,294.349665
68.5,294.349665
69.5,294.349665
69.65,294.349665
70.5,293.55023
71.5,293.55023
72.5,292.549485
72.65,292.549485
73.5,291.619392
74.5,286.150135
75.5,285.649763
76.5,285.649763
77.5,285.649763
77.65,285.649763
78.5,284.649985
79.5,284.649985
80.5,283.650208
80.65,283.650208
81.5,282.649463
82.5,281.749373
83.5,281.749373
84.5,276.3498
85.5,276.3498
86.5,276.3498
87.5,275.44971
88.5,275.44971
89.5,274.54962
90.5,274.54962
91.5,273.549843
92.5,272.649753
92.65,272.649753
93.5,267.749586
94.5,267.749586
95.5,267.749586
96.5,266.18943
97.5,266.239757
97.65,266.239757
98.5,266.239757
99.5,265.249658
100.5,264.249881
101.5,264.249881
102.5,263.349791
102.65,263.349791
103.5,262.350013
104.5,256.849786
105.5,256.849786
106.5,256.849786
107.5,256.849786
108.5,256.849786
109.5,255.949696
110.5,254.949919
111.5,254.949919
112.5,253.950141
113.5,253.050051
114.5,253.050051
115.5,252.050274
116.5,246.150329
117.5,246.150329
118.5,246.150329
119.5,246.150329
120.5,245.649956
121.5,245.649956
122.5,244.650179
123.5,243.650401
124.5,242.750311
125.5,242.750311
126.5,241.749566
127.5,240.749789
128.5,235.149874
129.5,235.149874
130.5,235.149874
131.5,235.149874
132.5,234.650469
133.5,234.650469
134.5,233.750379
135.5,233.750379
136.5,232.749634
137.5,231.749857
138.5,231.749857
139.5,230.849767
140.5,229.849989
141.5,225.360185
142.5,225.349539
143.5,225.349539
144.5,225.349539
145.5,224.550104
146.5,224.550104
147.5,223.650014
148.5,223.650014
149.5,222.749924
150.5,222.749924
151.5,221.750147
152.5,220.75037
153.5,220.75037
154.5,214.449739
155.5,214.449739
156.5,214.449739
157.5,214.449739
158.5,214.449739
159.5,213.849679
160.5,213.849679
161.5,212.849902
162.5,212.849902
163.5,211.850125
164.5,211.850125
165.5,210.950035
166.5,209.950257
167.5,209.950257
168.5,208.95048
169.5,207.949735
170.5,207.949735
171.5,206.949957
172.5,206.049867
173.5,206.049867
174.5,205.149777
175.5,205.149777
176.5,204.15
177.5,196.749905
178.5,196.749905
179.5,196.749905
180.5,196.749905
181.5,196.749905
182.5,196.749905
183.5,196.749905
184.5,196.749905
185.5,196.749905
186.5,195.95047
187.5,195.95047
188.5,194.949725
189.5,194.949725
190.5,194.049635
191.5,194.049635
192.5,193.150513
193.5,193.150513
194.5,186.350478
195.5,187.550598
196.5,187.550598
197.5,187.550598
198.5,187.550598
199.5,187.550598
200.5,187.550598
201.5,187.550598
202.5,186.450165
203.5,186.450165
204.5,186.450165
205.5,186.450165
206.5,186.450165
207.5,186.450165
208.5,186.450165
209.5,186.450165
210.5,181.549998
211.5,181.549998
212.5,182.650431
213.5,182.650431
214.5,183.650208
215.5,183.650208
216.5,184.649985
217.5,185.649763
217.75,185.649763
218.5,186.650508
219.5,188.550375
219.6,189.64984
219.766667,191.650363
219.933333,200.650295
220.266667,213.350275
220.433333,218.250442
220.6,221.549804
220.766667,222.549582
220.95,225.450194
221.183333,228.449527
221.5,244.650179
221.733333,250.250094
222.0,249.250316
222.783333,246.150329
223.0,252.050274
223.15,257.749876
223.316667,260.249803
223.6,262.049983
223.683333,262.980076
223.783333,265.710349
223.85,268.279961
223.966667,270.359847
224.016667,271.809669
226.733333,272.959461
226.783333,271.950006
227.783333,269.050361
228.283333,268.049616
228.783333,266.050061
229.283333,264.249881
229.783333,263.149448
230.783333,259.749431
231.783333,257.449846
232.783333,255.649666
233.783333,253.650111
234.783333,251.750244
235.783333,250.850154
236.783333,249.049974
237.783333,248.050196
238.783333,246.949764
239.783333,246.049674
240.783333,245.149584
241.783333,244.149806
242.0,244.219491
242.966667,245.28992
243.333333,246.240338
243.35,246.240338
243.783333,246.240338
244.283333,246.240338
244.783333,246.049674
245.783333,246.150329
246.783333,246.150329
247.783333,245.049896
248.783333,244.149806
249.783333,244.149806
250.783333,244.149806
251.783333,244.149806
252.783333,244.149806
253.783333,244.149806
254.783333,244.149806
255.783333,244.149806
256.783333,244.149806
257.783333,244.149806
258.783333,243.150029
259.783333,243.150029
260.783333,243.150029
261.783333,243.150029
261.983333,286.450165
262.15,286.450165
263.15,286.450165
264.15,286.450165
265.15,286.450165
266.15,286.450165
267.15,286.450165
267.233333,286.450165
267.466667,314.449739
268.283333,311.449439
269.033333,307.149332
269.283333,307.149332
269.533333,307.149332
269.783333,307.149332
270.283333,306.849302
270.783333,308.150077
271.283333,314.449739
271.783333,313.749992
272.15,319.949967
272.283333,319.949967
272.783333,316.549949
273.283333,320.349684
297.45,322.050177
297.566667,322.050177
297.783333,322.050177
298.316667,306.349897
299.316667,304.049345
300.316667,300.649327
301.316667,298.74946
302.316667,293.85026
303.316667,290.649618
304.316667,289.94987
305.316667,287.050225
306.316667,282.349433
307.316667,276.449488
308.316667,276.94986
309.316667,276.94986
310.316667,276.149458
311.316667,274.24959
312.316667,273.3495
313.316667,272.250036
314.316667,270.350168
315.316667,269.349423
316.316667,268.349646
317.316667,265.249658
318.316667,264.249881
319.316667,263.250103
320.316667,261.549611
321.316667,260.349491
322.316667,258.550279
323.316667,258.349936
324.316667,257.650189
325.316667,255.450291
326.316667,254.250171
327.316667,252.549679
328.316667,251.150184
329.316667,250.649811
330.316667,249.850376
331.316667,248.849631
332.316667,247.849854
333.316667,246.850076
334.316667,245.850299
335.316667,245.850299
336.316667,244.950209
337.316667,244.650179
338.316667,243.650401
339.316667,243.050341
340.316667,242.949686
341.316667,242.949686
342.316667,240.149729
343.316667,238.150174
344.316667,237.250084
345.316667,236.550337
346.316667,236.250307
347.316667,236.250307
348.316667,235.650247
349.316667,235.249561
350.316667,234.350439
351.316667,233.150319
352.316667,232.949977
353.316667,232.349917
354.316667,231.950199
355.316667,231.340461
356.316667,230.450049
357.316667,229.549959
358.316667,229.549959
359.316667,228.550182
360.316667,227.550404
361.316667,227.550404
362.316667,226.650314
363.316667,226.650314
364.316667,225.649569
365.316667,223.650014
366.316667,223.650014
367.316667,223.250297
368.316667,222.749924
369.316667,221.849834
370.316667,221.849834
371.316667,221.150087
372.316667,220.850057
373.316667,220.049654
374.316667,218.95019
375.316667,218.550472
376.316667,217.950412
377.316667,217.650382
378.316667,216.949667
379.316667,215.949889
380.316667,216.049577
381.316667,216.049577
382.316667,215.550172
383.316667,215.049799
384.316667,214.050022
385.316667,214.050022
398.816667,340.249416
399.316667,327.249407
399.816667,323.549359
400.316667,323.549359
400.816667,321.750147
401.316667,319.849312
401.816667,317.849757
402.316667,315.949889
403.316667,312.150155
404.316667,308.450107
405.316667,305.449807
406.316667,305.449807
407.316667,299.450175
408.316667,297.449652
409.316667,295.450098
410.316667,293.449575
411.316667,290.450243
412.316667,288.44972
413.316667,286.450165
414.316667,285.44942
415.316667,284.250268
416.316667,282.349433
417.316667,281.450311
418.316667,279.549475
419.316667,278.549698
420.316667,277.649608
421.316667,276.64983
422.316667,275.849428
423.316667,273.750186
424.316667,271.649976
425.316667,271.749663
426.316667,270.749886
427.316667,269.450078
428.316667,268.850018
429.316667,267.449556
430.316667,265.949406
431.316667,264.949628
432.316667,263.449478
433.316667,263.049761
434.316667,262.049983
435.316667,260.949551
436.316667,260.049461
437.316667,259.150339
438.316667,258.250249
439.316667,257.350159
440.316667,256.350381
441.316667,255.349636
442.316667,254.349859
443.316667,253.449769
444.316667,252.549679
445.316667,251.549901
446.316667,252.449991
447.316667,251.649588
448.316667,251.450214
449.316667,250.649811
450.316667,249.749721
451.316667,249.749721
452.316667,248.650256
453.316667,247.750166
454.316667,247.750166
455.316667,246.750389
456.316667,245.749644
457.316667,245.749644
458.316667,244.849554
459.316667,244.849554
460.316667,243.950431
461.316667,243.050341
462.316667,243.050341
463.316667,241.949909
464.316667,241.949909
465.316667,241.149506
466.316667,241.149506
467.316667,240.050041
468.316667,240.050041
469.316667,239.149951
470.316667,238.649579
471.316667,238.150174
472.316667,238.150174
473.316667,237.250084
474.316667,237.250084
475.316667,237.250084
476.316667,236.250307
477.316667,236.250307
478.233333,236.250307
478.272778,236.250307
478.273056,236.250307
478.75,238.249861
478.9,239.449981
479.233333,240.550414
479.733333,241.649879
480.4,245.550269
480.733333,247.949541
481.233333,250.349781
481.733333,252.350304
482.233333,253.950141
482.566667,312.949589
483.733333,313.949367
484.233333,321.949522
485.233333,304.249687
486.233333,304.349375
487.233333,304.249687
488.233333,303.24991
489.233333,304.349375
490.233333,305.249465
491.233333,306.25021
492.233333,307.249987
493.233333,308.249765
494.233333,310.149632
495.233333,310.899707
496.233333,312.949589
497.233333,313.949367
498.233333,314.950112
499.233333,315.949889
500.233333,316.649637
501.233333,317.849757
502.233333,318.849534
503.233333,319.849312
504.233333,320.749402
505.233333,321.750147
506.233333,322.749924
507.233333,323.650014
508.233333,324.649792
509.233333,325.649569
510.233333,326.649347
511.233333,327.650092
678.233333,330.450049
678.733333,324.449449
679.233333,319.449594
679.733333,314.449739
680.233333,309.449885
680.733333,304.45003
681.233333,298.44943
681.733333,292.449798
682.233333,287.449943
682.733333,280.449565
683.233333,274.449933
684.233333,265.450001
685.233333,257.449846
686.233333,248.449914
687.233333,241.449536
688.233333,234.450127
689.233333,229.450272
690.233333,224.450417
691.233333,218.449817
692.233333,214.449739
693.233333,212.450185
694.233333,209.449885
695.233333,208.450107
696.233333,207.45033
697.233333,207.45033
698.233333,208.450107
699.233333,208.450107
700.233333,208.450107
701.233333,208.450107
702.233333,209.449885
703.233333,209.449885
704.233333,209.449885
705.233333,209.449885
707.233333,209.449885
708.233333,208.450107
709.233333,207.45033
709.983333,206.449585
710.066667,206.449585
710.733333,212.450185
711.233333,212.450185
711.733333,225.450194
712.233333,227.449749
720.233333,271.449633
722.716667,408.449139
723.233333,432.449604
723.733333,438.449236
724.233333,438.449236
724.733333,440.449759
725.233333,416.449294
725.733333,372.44941
726.233333,374.449933
726.733333,351.449246
727.233333,351.449246
727.733333,352.449991
728.233333,352.449991
729.233333,352.449991
732.233333,352.449991
733.233333,352.449991
734.233333,352.449991
735.233333,352.449991
736.233333,352.449991
737.233333,352.449991
738.233333,352.449991
739.233333,352.449991
740.233333,352.449991
741.233333,352.449991
742.233333,352.449991
742.65,352.449991
743.233333,353.449769
744.233333,353.449769
745.233333,353.449769
746.233333,353.449769
747.233333,353.449769
748.233333,354.449546
749.233333,355.449323
750.233333,265.450001
751.733333,266.449778
752.233333,267.449556
1112.233333,340.987877
1112.733333,338.988322
1113.233333,336.9878
1113.733333,334.988245
1114.233333,331.987945
1115.233333,328.987645
1115.733333,322.988013
1116.233333,318.987935
1116.733333,316.98838
1117.233333,313.98808
1117.733333,311.987558
1118.233333,310.98778
1119.233333,306.987703
1119.733333,304.988148
1120.233333,303.988371
1120.733333,300.988071
1121.233333,298.988516
1122.233333,294.988439
1123.233333,292.987916
1124.233333,289.987616
1125.233333,286.988284
1126.233333,286.988284
1127.233333,272.988497
1128.233333,267.987674
1129.233333,258.987742
1130.233333,254.988632
1131.233333,253.987887
1132.233333,249.987809
1133.233333,247.988255
1134.233333,244.987955
1135.233333,242.9884
1136.233333,237.988545
1137.233333,234.988245
1138.233333,231.987945
1139.233333,228.988613
1140.233333,224.988535
1141.233333,221.988235
1142.233333,218.987935
1143.233333,215.988603
1144.233333,212.988303
1145.233333,210.988748
1146.233333,207.988448
1147.233333,205.987926
1148.233333,203.988371
1149.233333,200.988071
1150.233333,198.988516
1151.233333,195.988216
1152.233333,193.988661
1153.233333,190.988361
1154.233333,187.988061
1155.233333,185.988506
1156.233333,183.987984
1157.233333,181.988429
1158.233333,180.988651
1159.233333,178.988129
1160.233333,176.988574
1161.233333,174.988051
1162.233333,173.988274
1163.233333,171.988719
1164.233333,170.987974
1165.233333,169.988197
1166.233333,168.988419
1167.233333,166.988864
1168.233333,165.988119
1169.233333,164.988342
1170.233333,162.988787
1171.233333,161.988042
1172.233333,160.988264
1173.233333,159.988487
1174.233333,158.98871
1175.233333,157.988932
1176.233333,156.988187
1177.233333,155.988409
1178.233333,155.988409
1179.233333,154.988632
1180.233333,153.988855
1181.233333,152.988109
1182.233333,151.988332
1183.233333,150.988555
1184.233333,149.988777
1185.233333,148.988032
1186.233333,147.988255
1187.233333,146.988477
1188.233333,145.9887
1189.233333,145.9887
1190.233333,144.988922
1191.233333,143.988177
1192.233333,142.9884
1193.233333,141.988622
1194.233333,140.988845
1195.233333,136.988768
1196.233333,133.988468
1197.233333,132.98869
1198.233333,131.988913
1199.233333,130.988168
1200.233333,129.98839
1200.566667,129.98839
1200.983333,129.98839
1201.233333,133.988468
1202.233333,146.988477
1202.65,147.988255
1203.233333,153.988855
1203.983333,168.988419
1205.233333,168.988419
1206.233333,160.988264
1207.233333,161.988042
1208.233333,161.988042
1209.233333,157.988932
1210.233333,160.988264
1210.983333,148.988032
1212.233333,167.988642
1213.233333,168.988419
1214.233333,165.988119
1215.233333,166.988864
1216.233333,162.988787
1217.233333,158.98871
1218.233333,153.988855
1219.233333,150.988555
1220.233333,146.988477
1221.233333,142.9884
1222.233333,141.988622
1223.233333,135.98899
1224.233333,131.988913
1225.233333,129.98839
1226.233333,126.98809
1227.233333,124.988535
1228.233333,122.98898
1229.233333,121.988235
1230.233333,120.988458
1231.233333,119.98868
1232.233333,119.98868
1233.233333,119.98868
1234.233333,118.988903
1235.233333,118.988903
1236.233333,118.988903
1237.233333,118.988903
1238.233333,118.988903
1239.233333,118.988903
1240.233333,118.988903
1241.233333,118.988903
1242.233333,118.988903
1243.233333,118.988903
1244.233333,118.988903
1245.233333,117.988158
1246.233333,117.988158
1247.233333,117.988158
1248.233333,117.988158
1249.233333,116.98838
1250.233333,116.98838
1251.233333,116.98838
1252.233333,117.988158
1253.233333,117.988158
1254.233333,117.988158
1255.233333,116.98838
1256.233333,116.98838
1257.0,116.98838
1257.233333,117.988158
1257.65,122.98898
1257.983333,133.988468
1258.233333,138.988322
1258.316667,141.988622
1258.733333,149.988777
1258.9,152.988109
1259.233333,155.988409
1260.066667,152.988109
1260.233333,151.988332
1260.316667,151.988332
1260.483333,150.988555
1261.233333,147.988255
1262.233333,143.988177
1263.233333,139.9881
1264.233333,135.98899
1265.233333,133.988468
1266.233333,130.988168
1267.233333,128.988613
1268.233333,126.98809
1269.233333,124.988535
1270.233333,122.98898
1271.233333,121.988235
1272.233333,120.988458
1273.233333,119.98868
1274.233333,118.988903
1275.233333,118.988903
1276.233333,117.988158
1277.233333,117.988158
1278.233333,116.98838
1279.233333,115.988603
1280.233333,115.988603
1281.233333,115.988603
1291.066667,114.988826
1291.233333,114.988826
1292.066667,114.988826
1292.233333,113.989048
1293.233333,112.988303
1294.233333,111.988526
1295.233333,111.988526
1296.233333,111.988526
1297.233333,110.988748
1298.233333,110.988748
1299.233333,110.988748
1300.233333,109.988971
1301.233333,109.988971
1302.233333,108.988226
1303.233333,108.988226
1304.233333,108.988226
1305.233333,108.988226
1306.233333,108.988226
1307.233333,108.988226
1308.233333,108.988226
1309.233333,108.988226
1310.233333,108.988226
1311.233333,108.988226
1312.233333,108.988226
1313.233333,108.988226
1313.316667,108.988226
1314.233333,108.988226
1315.233333,108.988226
1316.233333,108.988226
1317.233333,108.988226
1318.233333,109.988971
1319.233333,109.988971
1320.233333,109.988971
1321.233333,109.988971
1322.233333,109.988971
1323.233333,109.988971
1324.233333,109.988971
1325.233333,109.988971
1326.233333,109.988971
1327.233333,109.988971
1328.233333,110.988748
1329.233333,110.988748
1330.233333,110.988748
1331.233333,109.988971
1332.233333,109.988971
1333.233333,109.988971
1334.233333,109.988971
1335.233333,109.988971
1336.233333,109.988971
1337.233333,109.988971
1338.233333,109.988971
1339.233333,109.988971
1340.233333,109.988971
1341.233333,109.988971
1342.233333,109.988971
1343.233333,109.988971
1344.233333,109.988971
1345.233333,109.988971
1346.233333,109.988971
1347.233333,109.988971
1348.233333,109.988971
1349.233333,109.988971
1350.233333,109.988971
1351.233333,109.988971
1352.233333,109.988971
1353.233333,109.988971
1354.233333,109.988971
1355.233333,109.988971
1356.233333,109.988971
1357.233333,108.988226
1358.233333,108.988226
1359.233333,108.988226
1360.233333,108.988226
1361.233333,108.988226
1362.233333,108.988226
1363.233333,108.988226
1364.233333,108.988226
1365.233333,108.988226
1366.233333,108.988226
1367.233333,108.988226
1368.233333,108.988226
1369.233333,108.988226
1370.233333,108.988226
1371.233333,108.988226
1372.233333,108.988226
1373.233333,108.988226
1374.233333,108.988226
1375.233333,107.988448
1376.233333,107.988448
1377.233333,107.988448
1378.233333,107.988448
1379.233333,108.988226
1380.233333,107.988448
1381.233333,108.988226
1382.233333,108.988226
1383.233333,108.988226
1384.233333,107.988448
1385.233333,107.988448
1386.233333,107.988448
1387.233333,106.988671
1388.233333,106.988671
1389.233333,106.988671
1390.233333,106.988671
1391.233333,106.988671
1391.9,106.988671
1392.233333,106.988671
1393.233333,106.988671
1394.233333,106.988671
1395.233333,106.988671
1396.233333,106.988671
1397.233333,106.988671
1398.233333,106.988671
1398.733333,106.988671
1399.233333,106.988671
1400.233333,106.988671
1401.233333,106.988671
1402.233333,105.988893
1403.233333,105.988893
1404.233333,105.988893
1405.233333,105.988893
1406.233333,105.988893
1407.233333,105.988893
1408.233333,105.988893
1409.233333,104.988148
1410.233333,104.988148
1411.233333,104.988148
1412.233333,104.988148
1413.233333,104.988148
1414.233333,104.988148
1415.233333,104.988148
1416.233333,104.988148
1417.233333,104.988148
1418.233333,104.988148
1419.233333,104.988148
1420.233333,104.988148
1421.233333,104.988148
1422.233333,104.988148
1423.233333,104.988148
1424.233333,104.988148
1425.233333,104.988148
