time,pressure
0.0,124.167483
1.221111,117.315185
2.613333,111.904967
4.223056,106.591532
5.563056,103.504127
6.901667,100.358651
8.143333,97.919697
9.417222,95.771095
10.716667,93.951559
12.023611,92.403017
14.379444,89.780174
15.668333,88.589732
16.994722,87.525109
18.258333,86.479844
19.489167,87.108939
20.781667,87.660607
22.1525,87.728356
23.400278,87.563823
24.714722,87.292828
26.006944,87.04119
27.518889,86.896014
28.966111,86.692768
30.424722,86.44113
32.038889,86.179814
35.356111,84.34092
38.435278,82.589132
38.435556,82.589132
41.672778,80.856701
43.315833,80.014681
44.972222,79.066199
46.515278,78.349998
48.022778,77.778974
49.423333,77.333768
51.113056,76.743386
52.562778,76.307859
54.0525,75.872331
55.570833,75.552944
56.980556,75.194844
58.992778,74.527035
62.13,73.375307
62.776944,73.152704
64.402222,72.465539
65.749444,71.942906
67.374722,71.342846
69.013611,70.665359
70.545278,70.104012
72.070556,69.591058
74.989722,68.845822
75.646667,68.845822
76.3925,68.478043
77.8175,68.032838
79.284444,67.742486
80.685,67.452134
82.118889,67.200496
83.401944,66.968215
86.551944,66.455261
87.4125,66.300406
88.811111,66.106839
90.2875,65.893914
92.504167,65.535814
94.096111,65.371281
95.51,65.206749
97.146389,65.013181
98.551667,64.868005
99.831944,64.703472
101.396944,64.53894
102.928611,64.364729
104.409167,64.122769
105.938889,68.73936
107.363889,75.775547
111.074444,73.675337
112.497222,74.207649
114.004444,76.394964
115.442778,77.778974
116.967778,79.017807
118.412778,79.656581
119.942222,80.275997
121.286944,80.808309
122.5675,81.214801
124.021389,81.621293
125.541944,82.260067
126.951389,81.234158
128.349722,80.566349
129.605556,80.101786
131.063889,79.617867
134.712222,78.814561
135.276944,78.746812
136.913333,78.611315
138.356389,78.524209
139.923611,78.446782
141.390833,78.427425
142.713611,78.39839
144.131667,78.388712
145.538889,78.39839
147.144167,78.156431
149.018611,77.924149
150.490556,77.924149
152.002222,77.778974
153.391944,77.711225
154.832778,115.524684
156.187778,115.524684
156.280278,101.781374
158.728056,91.251289
160.6425,85.453935
162.127778,82.250388
163.570556,79.985646
165.073611,77.759617
166.961389,75.727155
168.433333,74.527035
169.782778,73.530162
171.263611,72.610715
172.559722,72.000976
174.022778,73.956011
175.441389,71.952584
176.941944,70.48147
178.275556,69.474917
179.691667,68.574827
182.706389,67.064999
182.706667,67.064999
184.062778,66.493974
185.908333,65.845522
187.221944,65.487422
188.665,65.022859
190.201389,64.53894
191.935833,64.093734
193.521111,63.75499
194.665833,63.483996
196.180278,65.584206
197.585278,65.061573
198.970556,66.948858
200.388889,65.951984
201.811389,65.168035
203.236389,64.567975
207.213611,63.45496
208.669722,63.145252
210.145833,62.893614
211.581667,62.641976
213.102222,62.390338
214.485,62.225805
215.898889,62.051594
217.373056,61.848348
218.798056,61.674137
226.256667,81.621293
227.828611,79.066199
230.703333,72.784926
232.108333,71.023459
233.491111,69.755591
235.018611,68.4974
236.448333,67.452134
237.158611,67.452134
238.089167,66.455261
239.485556,65.787452
240.953056,65.148678
242.409167,64.606689
244.116667,64.064699
245.410833,65.574527
246.836111,67.907019
248.603611,68.110265
250.395833,67.045642
252.076667,73.278523
254.876111,67.994124
256.603333,66.387512
258.311111,65.090608
259.731944,64.248588
261.261667,63.464639
262.691111,62.864579
264.2675,62.225805
265.681667,64.95511
267.124444,63.290428
268.498333,62.535514
269.820833,65.022859
271.194722,65.613241
272.488611,64.345372
274.275833,64.451834
278.715556,64.23891
279.298056,63.774347
280.65,62.8549
282.1175,62.032238
283.480278,61.257967
284.985833,60.63855
286.433056,60.125595
287.540556,59.777173
289.034444,59.351324
290.453056,59.002902
292.098056,58.65448
293.756667,59.883636
295.201944,65.777773
296.580556,66.368155
298.128056,64.064699
299.6,62.883936
302.707778,61.141826
304.112778,60.619193
305.94,59.990098
307.382778,59.593284
309.105556,59.090008
310.684167,58.65448
312.153611,58.383486
313.534167,58.102812
315.019444,57.831818
316.415833,57.609215
317.553056,57.609215
317.680833,57.45436
319.201944,57.193044
321.683056,56.912371
323.165833,56.641376
326.75,56.215527
327.319167,56.19617
328.688889,56.080029
330.162778,55.934854
331.521111,55.779999
332.963889,55.65418
334.339722,55.605788
335.704722,55.557397
337.211944,55.363829
338.488056,55.189618
340.042222,55.102512
341.429444,55.141226
343.008333,55.063799
344.457778,55.112191
346.207778,55.102512
347.637222,55.092834
350.603333,55.112191
353.735833,54.957337
355.178333,54.947658
356.588056,54.957337
358.028889,54.947658
359.442778,54.928301
360.952778,54.908945
362.402222,54.947658
363.811667,54.957337
365.321389,54.93798
366.635278,54.889588
368.149167,54.889588
369.607222,54.899266
371.174722,54.908945
374.5825,54.957337
375.436111,54.986372
377.032222,54.986372
378.639722,54.967015
380.106667,54.967015
381.669444,55.005728
383.236944,55.005728
384.666111,55.015407
386.093333,55.034764
387.429444,55.121869
388.805833,55.092834
390.286667,55.044442
391.662778,55.073477
393.230278,55.025085
394.693333,55.034764
396.156389,55.015407
398.661944,54.99605
399.21,54.99605
400.391389,55.025085
401.91,54.99605
403.321944,54.986372
404.736111,54.99605
406.208056,54.986372
407.493056,54.976693
409.020556,54.967015
410.43,54.976693
411.930556,55.005728
413.106389,54.947658
414.331389,54.928301
415.596389,54.899266
416.81,54.928301
418.190556,54.928301
419.522222,54.899266
422.688056,56.622019
423.928611,55.809035
425.391667,55.567075
426.778611,55.363829
428.214722,55.257367
429.515278,55.228331
430.998056,55.160583
432.374167,55.102512
435.466389,55.034764
436.8425,55.005728
438.256389,54.976693
440.035278,54.957337
441.936111,54.986372
443.757222,54.957337
446.563056,54.928301
448.108333,54.93798
449.6425,54.928301
451.061111,54.889588
452.575278,54.908945
454.033611,54.918623
455.445556,54.879909
456.835278,54.870231
458.333611,58.286702
459.796389,56.670411
461.661667,56.080029
462.924444,55.905818
464.311667,55.683216
465.97,55.557397
467.2975,55.441256
470.672778,55.218653
471.609167,56.73816
472.95,56.089708
474.296667,55.847748
475.546389,55.673537
476.913056,55.53804
478.224167,55.421899
479.541944,55.325115
479.675,55.325115
480.812778,55.208975
482.160833,55.121869
483.425556,55.083156
484.746667,55.025085
486.333333,55.228331
487.908333,54.783126
489.211389,54.570201
490.581667,54.39599
491.9425,54.192744
495.609444,60.135274
496.970833,65.468065
498.323333,62.429051
499.601667,61.770921
500.940556,61.23861
502.208611,60.93858
503.471111,60.677263
504.786944,60.45466
506.1425,60.386912
507.451111,60.328841
508.576389,60.222379
509.949722,60.115917
511.375,60.086882
512.718889,60.144952
514.066944,60.203022
515.52,60.212701
518.4675,60.309485
519.18,60.280449
520.474444,60.251414
521.739722,59.980419
522.943333,59.622319
524.261111,59.283576
525.550278,59.051294
526.78,58.886762
528.1225,58.65448
529.370833,58.567375
530.577222,58.383486
531.93,58.199596
533.226389,58.122169
534.502778,57.986672
535.783889,57.870531
537.108611,57.783426
538.378333,57.686642
539.611389,57.570501
542.454722,57.435004
543.488889,57.386612
544.977778,57.260793
546.2675,57.193044
547.505278,57.115617
548.81,57.067225
550.139722,56.970441
551.5425,56.883336
552.778611,56.767195
554.429444,56.786552
555.721111,56.73816
557.14,56.641376
559.087222,56.689768
559.9825,56.689768
561.375556,56.573627
562.791667,56.467165
564.146944,56.409095
566.540278,56.331668
568.038889,56.234884
569.303056,56.273597
570.571389,56.389738
571.944167,56.25424
573.255278,56.186492
574.557222,56.225205
575.835556,56.167135
577.142222,56.099386
578.455556,56.234884
579.706389,56.176813
581.006667,56.167135
582.2775,56.080029
583.561389,56.041316
584.764444,56.021959
586.107778,56.031638
587.399167,56.041316
590.546667,55.983246
591.346111,55.95421
592.611111,55.89614
593.978056,55.867105
595.300278,55.857427
596.608889,55.809035
597.941944,55.89614
599.228333,55.818713
600.4925,55.809035
601.806111,55.770321
603.146667,55.760643
604.441111,55.779999
605.568056,55.760643
606.906667,55.741286
608.212222,55.721929
609.916111,55.702572
611.224444,55.750964
614.430833,55.65418
614.431111,55.65418
615.115,55.673537
616.438889,55.673537
617.770278,55.625145
619.122778,55.576753
620.186667,55.59611
621.503889,55.557397
622.767222,55.509005
624.089722,55.528361
625.378333,55.518683
626.830556,55.489648
629.630556,55.460613
631.031667,55.431577
632.376944,55.431577
633.706667,55.567075
635.267778,55.789678
638.401944,55.673537
639.131944,55.644502
640.416944,55.702572
641.568056,55.702572
641.902778,55.615467
643.188889,55.567075
644.592222,55.547718
645.972778,55.489648
647.259444,55.431577
648.538611,55.431577
649.760278,55.479969
651.100556,55.421899
652.316389,55.402542
653.531667,55.373507
654.773333,55.421899
656.608333,55.383186
658.0675,55.470291
659.362222,55.450934
662.517778,55.470291
663.288056,55.479969
664.575,55.441256
665.800556,55.402542
667.128889,55.402542
668.448056,55.392864
669.749722,55.373507
671.11,55.470291
672.386944,55.470291
673.774444,55.412221
675.139444,55.402542
676.393611,55.431577
677.683333,55.421899
678.98,55.421899
680.249722,55.586432
681.536389,55.59611
682.93,55.692894
684.236111,55.615467
686.555,55.683216
688.302778,55.634824
689.595,55.605788
690.960833,55.567075
692.295556,55.489648
693.574722,55.450934
694.939167,55.479969
696.207778,55.499326
697.499167,55.470291
698.779722,55.450934
700.218333,55.479969
701.551667,55.479969
702.808333,55.470291
704.175278,55.479969
705.602222,55.479969
707.016944,55.547718
708.335,55.53804
710.419167,55.634824
712.114167,55.625145
713.405278,55.615467
714.665278,55.586432
715.986389,55.547718
717.275278,55.634824
718.558889,55.625145
719.8175,55.586432
721.173056,55.528361
721.7125,55.528361
722.559722,55.528361
723.816389,55.499326
725.133056,55.441256
726.485278,55.431577
727.810833,55.479969
729.098333,55.402542
730.448333,55.402542
731.775833,55.383186
734.465556,55.373507
735.739167,55.373507
737.127222,55.412221
738.450833,55.412221
739.758611,55.421899
741.146111,55.450934
742.458056,55.450934
743.778611,55.489648
745.108056,55.53804
746.265833,55.586432
747.5775,55.605788
748.954167,55.605788
750.233889,55.789678
751.613889,55.712251
751.908889,55.692894
753.121389,55.712251
754.421667,55.683216
755.566944,55.809035
758.464444,55.779999
759.426944,55.876783
761.231389,55.83807
764.451667,55.925175
765.983611,55.983246
767.410556,55.886462
768.900833,55.809035
770.449167,55.809035
772.014167,55.712251
773.465,55.673537
774.971944,55.721929
776.953056,55.65418
778.471389,55.663859
780.18,55.663859
782.754444,55.605788
784.7575,55.615467
786.178611,55.644502
787.511667,55.59611
788.925833,55.567075
790.309167,55.557397
791.620833,55.547718
793.046111,55.567075
794.355833,55.528361
796.953333,55.499326
798.203889,55.489648
799.462778,55.489648
800.692778,55.509005
802.061111,55.625145
802.435,55.625145
803.430833,55.663859
806.51,55.663859
807.219722,55.702572
808.499167,55.625145
809.826944,55.557397
811.151667,55.557397
812.418333,55.576753
813.741111,55.499326
815.13,55.499326
816.415556,55.450934
817.580833,55.450934
818.823333,55.441256
820.188889,55.567075
821.210833,55.489648
822.574167,55.53804
824.303333,55.605788
826.155833,55.528361
827.509722,55.53804
830.518611,55.567075
831.424444,55.499326
832.701944,55.431577
834.005556,55.373507
835.196667,55.325115
836.47,55.286402
837.765278,55.228331
839.099167,55.208975
840.409722,55.218653
841.661111,55.150904
843.027222,55.121869
844.305833,55.160583
845.5675,55.121869
848.250556,55.267045
849.508889,55.189618
850.8125,55.179939
852.185278,55.121869
854.486667,55.150904
856.018611,55.092834
857.319722,55.208975
858.753611,55.179939
860.076389,55.073477
861.346389,55.044442
862.618056,55.015407
863.955,55.005728
865.247778,54.986372
866.510278,54.986372
867.806944,55.015407
869.082778,55.005728
870.363611,54.947658
871.658333,54.908945
872.948611,54.908945
874.247778,54.879909
875.425833,54.879909
878.391389,54.860553
879.1025,54.831517
880.415,54.812161
881.725556,54.831517
882.941111,54.831517
883.091944,54.860553
884.393333,54.812161
885.669167,54.725055
887.031667,54.734734
888.361944,54.686342
889.683056,54.666985
891.09,54.715377
892.376111,54.666985
893.675556,54.676663
894.899722,54.686342
895.031389,54.666985
896.348333,54.628271
897.588056,54.599236
898.920278,54.570201
900.181944,54.628271
902.317778,54.579879
903.6675,54.560523
904.999722,54.521809
906.375833,54.492774
907.67,54.541166
908.977222,54.550844
910.260278,54.570201
911.546944,54.541166
912.829167,54.483096
914.176111,54.473417
915.405556,54.473417
919.599722,58.722229
922.465,57.764069
923.734722,57.560823
926.1625,57.134974
927.385,56.980119
928.766944,56.805908
930.123889,56.602662
931.368889,56.43813
932.608056,56.341346
933.959167,56.205848
935.211111,56.041316
936.478056,55.915497
937.747778,55.789678
939.053889,55.731608
940.276944,55.634824
941.545833,55.528361
942.817222,55.460613
944.149444,55.392864
945.435833,55.325115
946.687778,55.383186
947.750833,55.334794
951.011111,55.131547
952.958611,55.179939
954.220556,55.112191
955.476111,55.083156
956.771667,55.131547
958.234167,55.102512
959.659444,55.131547
960.961667,55.112191
962.215278,55.102512
963.473611,54.976693
963.596111,54.976693
964.720833,54.879909
966.051389,54.841196
967.319444,54.783126
968.569722,54.69602
969.898611,54.666985
971.158611,54.599236
974.373611,54.444382
974.776944,54.444382
976.193333,54.415347
977.569444,54.366955
978.97,54.279849
980.321389,54.231457
981.791111,54.163709
983.165,54.115317
984.494167,54.124995
985.979444,54.134674
987.293333,54.124995
988.820833,54.115317
990.226111,54.105638
991.711389,54.15403
993.221111,54.183066
994.939722,54.192744
996.280556,54.163709
1000.095833,54.105638
1001.398889,54.115317
1002.730833,54.124995
1004.153889,54.086282
1005.61,53.999176
1007.073056,53.999176
1008.447222,53.970141
1009.974722,53.941106
1011.362222,53.873357
1013.254444,53.815287
1015.361667,53.757217
1016.687222,53.708825
1017.991111,53.699146
1019.274444,53.641076
1022.3625,53.670111
1023.063611,53.718503
1024.531944,53.670111
1025.810278,53.641076
1027.165,53.679789
1028.451389,53.670111
1029.742222,53.670111
1031.017222,53.679789
1032.300833,53.718503
1033.596944,53.631397
1034.906111,53.641076
1036.289722,53.679789
1037.531389,53.689468
1038.818611,53.689468
1040.051111,53.747538
1041.299722,53.679789
1042.553333,53.641076
1044.092222,53.660433
1045.185278,53.660433
1046.445,53.602362
1048.104167,53.583006
1049.407222,53.583006
1050.703056,53.55397
1052.135278,53.505578
1053.437778,53.4959
1054.766389,53.524935
1056.135833,53.457187
1057.461944,53.428151
1058.708611,53.370081
1060.103611,53.418473
1061.4225,53.379759
1062.717222,53.360403
1064.076667,53.43783
1065.336667,53.360403
1066.505833,53.389438
1067.814722,53.418473
1070.396111,53.370081
1071.600278,53.350724
1072.976944,53.370081
1074.374444,53.408795
1075.741667,53.341046
1077.100833,53.312011
1078.410556,53.244262
1079.677778,53.215227
1081.123333,53.205548
1082.435278,53.19587
1083.901389,53.19587
1085.263056,53.128121
1086.906944,53.089408
1088.1825,53.079729
1089.440833,53.050694
1090.731944,53.031337
1092.068611,53.079729
1094.346389,53.19587
1095.81,53.157157
1097.121111,53.108765
1098.369722,53.050694
1099.666944,53.011981
1101.049167,53.089408
1102.351667,53.089408
1103.651111,53.1378
1105.091111,53.128121
1106.348889,53.157157
1107.591389,53.128121
1108.900833,53.108765
1110.186111,53.147478
1111.478889,53.312011
1112.774444,53.302332
1114.144444,53.321689
1115.445556,53.350724
1118.383056,53.273297
1119.130556,53.302332
1120.527778,53.350724
1121.770833,53.273297
1123.103056,53.215227
1124.372222,53.157157
1125.615556,53.273297
1125.946389,53.273297
1126.945,53.350724
1128.226944,53.302332
1129.521944,53.302332
1130.975278,53.321689
1132.409444,53.215227
1133.740556,53.224905
1135.215278,53.166835
1136.586944,53.089408
1137.908889,53.089408
1139.198333,53.118443
1142.440278,53.118443
1143.0575,53.1378
1144.343611,53.108765
1145.633611,53.070051
1146.962778,53.041016
1148.236944,53.011981
1149.564722,52.973267
1150.939167,52.973267
1152.236389,53.031337
1153.546944,53.031337
1154.788333,52.973267
1156.179444,52.915197
1158.08,52.973267
1159.343056,52.934554
1160.616944,52.963589
1161.942778,53.050694
1163.209167,53.070051
1166.127222,53.011981
1166.703889,52.982946
1168.053056,52.973267
1169.328333,52.944232
1170.633056,52.886162
1171.968611,52.973267
1173.255833,52.963589
1174.584722,52.924875
1175.923611,52.886162
1177.638611,52.905518
1179.050556,52.89584
1180.350833,52.866805
1181.663333,52.886162
1182.988889,52.866805
1185.678611,52.934554
1186.99,52.905518
1190.426389,53.002302
1191.120833,53.070051
1193.695,53.1378
1195.018611,53.128121
1196.335556,53.089408
1197.604167,53.118443
1198.948333,53.176513
1200.287778,53.186192
1201.676944,53.1378
1202.989167,53.147478
1204.339444,53.234584
1205.641667,53.282976
1205.753889,53.282976
1207.065556,53.205548
1208.299444,53.224905
1209.585556,53.234584
1210.831667,53.215227
1212.118333,53.263619
1214.369722,53.205548
1216.043889,53.19587
1217.314722,53.215227
1218.595556,53.19587
1219.908611,53.224905
1221.139444,53.234584
1222.3975,53.25394
1223.658889,53.263619
1224.967222,53.205548
1226.217222,53.234584
1227.4925,53.224905
1228.772778,53.186192
1229.998611,53.331367
1230.147222,53.331367
1231.353333,53.321689
1232.643333,53.534614
1234.018611,53.476543
1235.282222,53.43783
1237.11,53.370081
1238.441111,53.331367
1239.106944,53.350724
1240.429722,53.273297
1241.729444,53.19587
1243.104722,53.312011
1244.3925,53.244262
1245.701389,53.312011
1247.031111,53.273297
1248.323333,53.263619
1249.648056,53.302332
1251.111944,53.418473
1252.921944,53.370081
1254.195,53.370081
1254.570833,53.370081
1255.583611,53.389438
1256.941944,53.389438
1258.494722,53.389438
1259.773611,53.341046
1261.590556,53.331367
1262.395833,53.312011
1263.583333,53.321689
1265.024722,53.273297
1266.404722,53.234584
1267.987778,53.25394
1269.446389,53.25394
1271.007222,53.244262
1272.348056,53.176513
1273.8175,53.147478
1275.445278,53.157157
1276.946111,53.128121
1278.611389,53.166835
1279.042222,53.166835
1280.212222,53.108765
1281.648611,53.418473
1283.145,53.418473
1285.101667,53.282976
1286.738056,53.350724
1287.462778,53.302332
1288.9525,53.302332
1290.366667,53.302332
1291.740833,53.263619
1293.155,53.215227
1294.535833,53.234584
1295.954444,53.399116
1297.368611,53.447508
1298.736111,53.524935
1300.168056,53.505578
1301.604444,53.399116
1303.105278,53.370081
1303.430833,53.370081
1304.479444,53.399116
1307.493889,53.282976
1310.440278,53.224905
1311.41,53.205548
1312.670833,53.25394
1314.033611,53.19587
1315.338889,53.157157
1316.599722,53.25394
1319.196667,53.1378
1320.431389,53.108765
1321.940833,53.099086
1322.81,53.099086
1323.605,53.079729
1325.018056,53.060373
1326.352222,53.099086
1327.650278,53.079729
1328.988611,53.041016
1330.262222,53.011981
1331.540833,52.982946
1334.259722,53.002302
1335.250278,52.982946
1336.583611,52.944232
1337.921111,52.934554
1339.244722,52.95391
1340.509444,53.002302
1341.9025,52.982946
1343.226667,53.011981
1344.526111,52.944232
1345.805278,52.944232
1347.123611,52.982946
1349.609722,53.002302
1350.936667,52.982946
1352.203611,53.021659
1353.484722,53.002302
1354.770278,53.128121
1356.04,53.19587
1358.467222,53.108765
1359.908056,53.108765
1361.181667,53.099086
1362.516389,53.108765
1363.78,53.099086
1365.135833,53.1378
1366.421944,53.118443
1367.694444,53.147478
1369.080833,53.19587
1370.344444,53.215227
1371.593611,53.25394
1372.948611,53.263619
1374.202222,53.244262
1375.3925,53.25394
1376.673889,53.215227
1378.331667,53.19587
1379.620278,53.19587
1382.335,53.224905
1383.322222,53.224905
1384.218056,53.224905
1384.637778,53.19587
1385.977778,53.224905
1387.273889,53.224905
1388.572222,53.176513
1389.9425,53.1378
1391.190556,53.157157
1392.450833,53.1378
1393.713611,53.147478
1395.006389,53.147478
1396.259167,53.108765
