time,pressure
0.0,366.097076
0.25,359.70934
0.5,353.805524
0.75,347.514572
1.0,341.513972
1.5,328.738501
2.0,323.318604
3.0,304.348965
5.083333,270.668178
6.416667,251.601755
7.5,237.761662
8.166667,229.051113
9.25,215.98529
12.333333,187.627616
13.333333,177.949229
14.333333,169.432248
15.333333,161.399187
16.333333,153.850045
17.333333,146.49447
18.333333,139.816383
19.333333,133.331864
20.333333,127.23448
20.833333,124.23418
22.833333,115.813983
23.5,113.200818
24.25,110.781222
25.25,107.393786
26.25,103.909567
27.333333,100.328563
29.0,95.102234
30.0,92.101934
31.0,89.198418
32.0,86.585254
36.666667,96.166857
36.833333,96.74756
36.916667,97.328263
37.0,97.521831
37.033333,97.618615
37.283333,97.715399
37.5,96.844344
38.0,95.779721
40.083333,85.230279
41.75,77.777921
43.0,73.906566
45.416667,64.518531
48.416667,55.130495
49.416667,52.420547
49.45,52.130195
49.7,53.388386
49.95,54.453008
50.2,55.420847
50.45,56.679037
50.666667,57.550092
51.0,56.291902
51.166667,56.775821
51.5,55.614415
51.666667,56.485469
52.0,55.324063
52.666667,55.711198
53.0,54.453008
53.733333,55.227279
54.05,53.969089
54.766667,55.130495
55.05,54.065873
55.266667,55.130495
55.533333,54.356224
55.766667,55.130495
56.05,54.162656
56.283333,55.033711
56.533333,54.162656
56.766667,54.936927
57.05,54.065873
60.0,53.485169
60.5,55.324063
60.766667,54.162656
61.0,55.130495
61.266667,54.646576
61.916667,55.130495
62.666667,56.388686
62.916667,55.904766
63.25,57.066173
63.466667,56.098334
63.75,57.162957
63.95,56.582253
64.25,57.646876
64.433333,56.872605
64.75,57.937227
64.933333,57.162957
65.25,58.324363
65.416667,57.646876
67.75,59.969689
67.916667,59.195418
68.75,60.74396
68.916667,59.969689
69.75,61.421447
69.916667,60.840744
70.25,61.808582
70.45,61.034311
70.75,61.808582
70.95,61.131095
71.75,61.905366
71.95,61.421447
72.266667,62.292502
72.45,61.711798
72.783333,62.582853
72.95,62.00215
73.383333,62.679637
73.566667,62.486069
74.433333,63.453908
74.6,63.066773
74.933333,63.74426
75.116667,63.453908
75.283333,63.841044
75.466667,63.357124
75.8,64.421747
76.033333,63.163557
79.783333,66.550992
79.95,65.970289
80.266667,66.74456
80.45,66.163857
80.766667,66.841344
80.95,66.26064
81.283333,67.034911
81.45,66.550992
83.4,67.615615
83.6,67.809182
85.5,72.938728
85.683333,72.648376
86.45,73.132295
86.616667,72.454808
86.75,72.551592
86.833333,72.551592
86.883333,72.938728
87.083333,72.067673
89.016667,71.777321
89.2,71.777321
90.916667,71.680537
91.116667,71.390186
92.916667,71.099834
93.1,70.712699
95.0,71.680537
95.183333,71.390186
97.083333,72.261241
97.3,71.680537
100.0,73.132295
100.2,72.261241
101.5,73.616215
101.7,73.132295
103.5,73.616215
103.916667,74.100134
104.6,74.293702
104.8,73.712999
107.066667,74.390486
107.25,75.067973
109.1,74.874405
109.3,75.551892
109.45,75.551892
109.65,74.874405
109.966667,75.74546
110.15,75.067973
110.483333,75.939028
110.65,75.261541
111.0,76.132595
111.15,75.551892
112.016667,76.713299
112.166667,76.132595
113.583333,76.519731
113.783333,77.00365
115.0,77.390786
115.183333,76.906866
115.333333,77.390786
116.5,45.74246
119.25,285.669678
123.25,271.539233
123.75,261.280142
124.25,251.504971
125.25,232.051413
126.25,214.436748
127.25,197.499571
128.0,183.853045
128.333333,180.755961
130.916667,144.365225
133.0,122.879206
135.166667,107.684138
136.166667,100.618915
137.166667,96.360425
138.166667,90.553392
139.166667,86.48847
140.166667,82.036412
141.166667,78.165057
142.166667,74.584053
143.166667,70.035211
144.166667,65.970289
145.166667,60.647176
146.166667,59.388986
147.166667,58.227579
147.5,60.066473
147.666667,59.872905
148.0,61.421447
148.25,60.840744
149.0,62.389286
149.25,61.227879
150.0,62.098934
150.25,60.840744
151.0,61.808582
151.25,60.356824
152.0,61.421447
152.25,60.066473
154.666667,59.485769
154.833333,59.485769
156.0,59.776121
157.75,57.74366
159.166667,57.25974
159.333333,56.969389
161.133333,56.195118
161.35,55.711198
162.25,54.646576
163.0,55.420847
163.266667,53.872305
164.016667,55.227279
164.266667,53.581953
165.1,54.646576
165.516667,54.549792
167.25,53.388386
167.433333,53.678737
169.133333,53.678737
169.316667,52.710898
171.1,54.840144
171.333333,52.710898
172.116667,54.74336
172.333333,52.614115
173.116667,54.549792
173.333333,52.517331
174.116667,54.25944
174.333333,52.420547
175.15,54.453008
175.333333,52.807682
176.133333,54.840144
176.333333,53.291602
176.616667,55.033711
176.833333,53.388386
179.35,54.936927
179.55,53.581953
180.3,54.74336
180.5,53.872305
181.25,54.356224
181.416667,53.678737
182.733333,54.065873
182.916667,53.485169
183.666667,54.25944
184.016667,53.194818
184.183333,54.065873
184.366667,53.00125
185.766667,53.969089
185.933333,53.388386
186.283333,53.969089
186.45,53.291602
188.283333,54.065873
188.433333,52.710898
189.25,54.356224
189.433333,53.678737
189.733333,54.549792
189.933333,53.291602
190.333333,54.065873
190.516667,54.162656
192.466667,59.00185
192.666667,58.517931
193.983333,58.227579
194.15,57.646876
195.45,57.453308
195.65,57.066173
197.933333,57.162957
198.133333,56.098334
198.483333,56.775821
199.5,57.453308
200.983333,60.26004
201.183333,60.163257
203.383333,58.711498
203.6,57.937227
204.95,58.905066
205.133333,57.840444
205.516667,58.905066
205.716667,57.937227
205.883333,58.614715
206.066667,57.646876
208.233333,61.905366
208.4,61.324663
209.633333,61.615015
213.05,60.356824
213.25,58.905066
214.05,59.969689
214.25,58.711498
215.05,59.776121
215.25,58.614715
218.35,67.325263
219.75,66.26064
221.5,65.292802
221.7,65.00245
224.566667,63.74426
224.75,63.841044
224.933333,62.969989
227.233333,62.873205
227.4,61.711798
229.866667,62.195718
230.05,61.905366
233.65,65.00245
233.75,64.421747
234.15,65.583153
234.25,65.00245
235.133333,66.550992
235.25,65.873505
236.083333,66.938128
236.25,66.067073
237.083333,66.74456
237.25,65.776721
238.083333,66.647776
238.25,65.776721
243.0,64.518531
267.0,71.680537
291.0,74.584053
315.0,76.519731
339.0,79.713599
363.0,81.262141
387.0,81.358924
411.0,82.326763
435.0,79.810383
459.0,81.649276
483.0,82.907466
507.0,85.617415
531.0,86.391686
555.0,87.262741
579.0,84.359225
603.0,84.359225
627.0,85.810983
651.0,85.907766
675.0,85.520631
699.0,87.069173
723.0,88.133796
747.0,87.069173
771.0,85.423847
795.0,86.585254
819.0,88.230579
843.0,93.263341
867.0,92.779421
891.0,91.811583
915.0,90.069473
939.0,86.972389
963.0,86.585254
987.0,83.681737
1011.0,83.48817
1035.0,83.197818
1059.0,83.101034
1083.0,82.907466
1107.0,81.358924
1131.0,79.423247
1155.0,80.778221
1179.0,82.133195
1203.0,81.455708
1227.0,81.358924
1251.0,84.649576
1275.0,86.778821
1299.0,84.165657
1323.0,88.520931
1347.0,88.230579
1371.0,85.520631
1395.0,82.617115
1419.0,81.068573
1443.0,84.262441
1467.0,84.843144
1491.0,83.875305
1515.0,84.068873
1539.0,85.327063
1563.0,84.262441
1587.0,82.036412
1611.0,84.649576
1635.0,84.74636
1659.0,83.681737
1683.0,82.713899
1707.0,83.197818
1731.0,84.74636
1755.0,84.262441
1779.0,82.907466
1803.0,83.48817
1827.0,83.294602
1851.0,83.48817
1875.0,84.165657
1899.0,84.068873
1923.0,83.197818
1947.0,85.423847
