time,pressure
0.0,169.016295
0.985278,164.864267
2.090556,161.360691
3.200833,158.205537
4.330833,155.911759
4.688611,155.272985
5.514444,153.918011
6.574722,152.350112
7.759167,150.859641
8.768611,149.446596
9.958611,148.033552
11.101667,146.756005
12.253889,145.623633
13.386111,144.452549
14.506389,143.349212
15.663889,142.274911
16.776667,141.219967
17.88,140.194058
18.974444,139.323003
20.089444,138.268059
21.182778,137.367969
22.180278,136.661447
25.2475,133.835358
26.333889,132.925589
27.708889,132.490062
28.837222,131.909359
29.965278,131.270585
30.518611,130.960877
31.307778,130.622133
32.349167,129.993038
33.486389,129.325229
34.726944,128.628385
36.160556,127.834758
37.470833,127.157271
38.582222,126.518497
39.766667,125.860367
40.882778,125.231272
42.095278,124.631212
43.213611,124.147292
44.358333,123.44077
45.481667,122.84071
47.523056,121.64059
49.18,120.663073
50.216667,120.266259
51.3225,122.550358
52.341667,125.008669
53.395833,123.876297
54.545,122.134188
55.171389,121.408309
55.934167,120.643716
57.125833,119.704912
58.098611,119.704912
58.266111,118.785466
59.469444,117.972481
61.305833,116.801396
62.718056,115.891628
62.985833,115.717417
63.948056,115.127035
65.205833,114.401156
65.724722,114.101126
66.841111,113.462353
68.103056,112.775187
69.178056,112.28159
70.243333,111.68153
72.777222,110.462053
73.823889,109.987812
75.133333,109.387752
76.445278,108.671551
77.779167,108.003742
79.031111,107.423039
80.328611,106.832658
81.741667,106.242276
83.063333,105.700286
84.361389,105.19701
85.764722,104.645342
87.097778,104.161423
88.409722,103.69686
89.797222,103.203262
91.138889,102.758057
92.5075,102.293494
94.003611,104.064639
95.669444,104.045282
97.902222,102.467705
99.346389,101.674077
100.696944,100.928841
101.971389,100.212641
103.142778,99.719043
104.451111,99.089948
105.795278,98.53828
107.1075,98.044682
108.449444,97.531727
109.836944,97.028451
111.141944,96.573567
112.511944,96.079969
113.959444,95.712191
114.359167,95.59605
115.528889,95.286342
116.054444,95.286342
116.845278,94.860493
117.060556,94.860493
118.045556,94.39593
119.440833,93.912011
119.713056,93.912011
121.363889,93.263559
122.736389,92.83771
123.480556,92.83771
123.928611,92.450574
124.531944,92.450574
125.017778,92.131187
125.537222,92.131187
126.106944,91.792444
126.628889,91.792444
127.728889,91.792444
127.729167,91.792444
128.51,90.998816
128.789444,90.998816
128.789722,90.998816
129.738056,90.621359
129.893889,90.621359
129.894167,90.621359
130.915833,90.263259
131.066389,90.263259
131.066667,90.263259
132.018333,89.934193
132.155278,89.934193
132.155556,89.934193
133.161111,89.934193
133.161389,89.934193
133.218056,89.585772
134.250556,89.585772
134.250833,89.585772
134.383056,89.247028
135.356667,89.247028
135.356944,89.247028
135.650556,88.888928
136.370833,88.888928
136.801389,88.569541
137.4025,88.569541
137.402778,88.569541
137.973611,88.569541
140.158889,87.688808
140.820833,87.688808
141.198333,87.369421
141.869444,87.369421
142.223333,87.108104
142.911667,87.108104
142.911944,87.108104
143.445278,86.779039
144.085833,86.779039
145.335278,86.779039
145.575,86.217693
146.408611,86.217693
146.697222,85.917663
147.664444,85.917663
147.664722,85.917663
147.893889,85.607954
148.730278,85.607954
148.730556,85.607954
148.96,85.356316
149.822778,85.356316
149.823056,85.356316
150.045278,85.056286
150.925278,85.056286
151.1575,84.79497
152.030278,84.79497
152.267222,84.514297
153.167778,84.514297
153.398889,84.223945
154.186389,84.223945
154.186667,84.223945
154.711944,83.914237
155.193889,83.914237
155.194167,83.914237
155.843056,83.643242
156.213889,83.643242
156.214167,83.643242
156.970278,83.391604
157.259444,83.391604
158.155,83.149644
158.306389,83.149644
159.291389,82.888328
159.450833,82.888328
160.450833,82.627011
160.644444,82.627011
160.644722,82.627011
161.582778,82.326981
161.7725,82.326981
162.780833,82.03663
162.903611,82.03663
163.910278,82.03663
163.910556,82.03663
163.969167,81.79467
164.95,81.79467
164.950278,81.79467
165.07,81.543032
166.0625,81.543032
166.19,81.291394
167.103056,81.291394
167.103333,81.291394
167.280556,81.059112
168.157778,81.059112
168.158056,81.059112
169.212778,81.059112
169.213056,81.059112
169.330556,80.613907
170.259722,80.613907
170.502222,80.381625
171.414444,80.381625
171.414722,80.381625
171.703333,80.159022
172.5175,80.159022
172.517778,80.159022
172.825,79.888028
173.710556,79.888028
173.710833,79.888028
173.941944,79.655746
174.839444,79.655746
174.839722,79.655746
175.075833,79.413787
175.965,79.413787
176.209167,79.191184
177.040278,79.191184
177.414444,78.949224
178.066389,78.949224
178.529444,78.726621
179.163889,78.726621
179.164167,78.726621
179.695556,78.533053
180.166111,78.533053
180.166389,78.533053
180.812222,78.281415
181.182222,78.281415
181.96,78.068491
182.188611,78.068491
182.188889,78.068491
183.113056,77.836209
183.2175,77.836209
183.217778,77.836209
184.240278,77.836209
184.305833,77.613607
185.333889,77.613607
185.334167,77.613607
185.460833,77.381325
186.452778,77.381325
186.575,77.207114
187.514444,77.207114
187.514722,77.207114
187.681944,76.936119
188.743611,76.936119
188.743889,76.936119
188.881389,76.723195
189.778333,76.723195
190.026667,76.500592
190.817778,76.500592
190.818056,76.500592
191.371667,76.258632
192.0,76.258632
193.021944,76.258632
193.135556,75.919889
194.0775,75.919889
194.203611,75.735999
195.469167,75.735999
195.656667,75.426291
196.641944,75.426291
196.642222,75.426291
196.900556,75.106904
197.738611,75.106904
197.738889,75.106904
198.118889,74.768161
198.767222,74.768161
198.7675,74.768161
199.286944,74.564915
199.832222,74.564915
199.8325,74.564915
200.675556,74.216493
200.906667,74.216493
200.906944,74.216493
201.921111,74.216493
201.921389,74.216493
202.000278,73.935819
202.926389,73.935819
203.563056,73.626111
204.078889,73.626111
204.950278,73.326081
205.106944,73.326081
205.107222,73.326081
206.129722,73.326081
206.13,73.326081
206.275278,73.074443
207.209444,73.074443
207.209722,73.074443
207.673889,72.803448
208.220556,72.803448
208.220833,72.803448
208.979444,72.55181
209.247778,72.55181
210.2625,72.338886
210.693056,72.338886
210.9875,72.203388
211.721111,72.203388
211.721389,72.203388
212.139444,71.971107
212.763333,71.971107
213.496111,71.767861
213.919722,71.767861
213.92,71.767861
215.140833,71.767861
215.196944,71.467831
216.223889,71.467831
217.016944,71.148444
217.285,71.148444
218.252222,70.983911
218.391389,70.983911
218.391667,70.983911
219.405278,70.983911
219.405556,70.983911
219.493611,70.732273
220.44,70.732273
220.760833,70.538706
221.6125,70.538706
222.055833,70.335459
222.886111,70.335459
222.886389,70.335459
223.338056,70.083821
223.941389,70.083821
223.941667,70.083821
224.600278,69.774113
225.032778,69.774113
225.895,69.570867
226.050833,69.570867
227.081667,69.299872
227.224722,69.299872
227.225,69.299872
228.255556,69.299872
228.342222,69.106304
229.271667,69.106304
229.271944,69.106304
229.568611,68.883701
230.389167,68.883701
230.389444,68.883701
230.836111,68.632063
231.503889,68.632063
231.504167,68.632063
232.055556,68.40946
232.623889,68.40946
232.624167,68.40946
233.34,68.196536
233.654167,68.196536
233.654444,68.196536
234.58,67.983611
234.766389,67.983611
234.766667,67.983611
235.779444,67.983611
235.914722,67.8094
236.874167,67.8094
236.874444,67.8094
237.146111,67.577119
237.966667,67.577119
237.966944,67.577119
238.156667,67.441622
239.135,67.441622
239.478611,67.286767
240.268056,67.286767
240.268333,67.286767
240.338056,67.219019
240.895,67.0932
241.378889,67.0932
241.574167,67.006094
242.334722,66.899632
242.4625,66.899632
243.474444,66.899632
243.474722,66.899632
243.588611,66.744778
244.611389,66.744778
244.611667,66.744778
244.890556,66.580245
245.731111,66.580245
246.140278,66.415713
246.830556,66.415713
246.830833,66.415713
247.362222,66.260858
247.849722,66.260858
248.683611,66.096326
248.941667,66.096326
248.941944,66.096326
249.951944,65.95115
250.121667,65.95115
251.126389,65.95115
251.126667,65.95115
251.184722,65.776939
252.164722,65.776939
252.165,65.776939
252.431667,65.631763
253.302778,65.631763
253.761111,65.457552
254.395278,65.457552
254.395556,65.457552
255.108889,65.29302
255.420556,65.29302
255.420833,65.29302
256.4,65.138165
256.68,65.138165
256.680278,65.138165
257.691111,64.99299
257.847222,64.99299
258.870833,64.99299
258.938056,64.818779
259.9175,64.818779
259.917778,64.818779
260.428056,64.654246
260.971389,64.654246
260.971667,64.654246
261.524722,64.50907
262.039167,64.50907
263.170278,64.50907
263.170556,64.50907
263.634444,64.286467
264.3025,64.286467
264.302778,64.286467
264.977778,64.121935
265.345278,64.121935
265.345556,64.121935
266.191389,63.976759
266.390833,63.976759
266.391111,63.976759
267.373611,63.860618
267.491389,63.860618
268.5125,63.860618
268.590833,63.744478
269.602778,63.744478
269.603056,63.744478
269.884722,63.599302
270.379722,63.531553
270.654722,63.531553
271.555556,63.425091
271.747778,63.425091
271.748056,63.425091
272.793889,63.425091
272.794167,63.425091
272.955833,63.270237
273.816389,63.270237
273.816667,63.270237
274.219167,63.144418
274.919722,63.144418
274.92,63.144418
275.510556,63.057312
275.953611,63.057312
276.812778,62.931493
277.031667,62.931493
277.031944,62.931493
278.038611,62.931493
278.099444,62.805674
279.075,62.805674
279.075278,62.805674
279.357222,62.670177
280.186667,62.670177
280.186944,62.670177
280.582222,62.65082
281.27,62.65082
281.270278,62.65082
281.805556,62.554036
282.329722,62.554036
282.33,62.554036
282.955556,62.554036
283.335833,62.525001
283.478056,62.525001
284.496111,62.525001
284.496389,62.525001
284.575556,62.495966
285.533889,62.495966
285.534167,62.495966
285.846389,62.29272
286.861111,62.29272
287.658056,62.079795
287.905556,62.079795
287.905833,62.079795
288.926944,62.079795
288.927222,62.079795
289.3325,61.895906
290.000556,61.895906
290.553611,61.741052
291.138333,61.741052
291.138611,61.741052
291.876944,61.634589
292.21,61.634589
292.210278,61.634589
293.100278,61.653946
293.305556,61.653946
293.305833,61.653946
294.315556,61.595876
294.481389,61.595876
295.488611,61.595876
295.553056,61.411986
296.696944,61.411986
296.697222,61.411986
296.845,61.363594
297.828611,61.363594
297.828889,61.363594
298.100278,61.537805
298.939167,61.537805
298.939444,61.537805
299.315,61.4507
299.978889,61.4507
299.979167,61.4507
300.571667,61.237775
300.991389,61.237775
300.991667,61.237775
301.8275,61.4507
302.075833,61.4507
302.076111,61.4507
303.120556,61.334559
303.270278,61.334559
304.306111,61.334559
304.306389,61.334559
304.3975,61.034529
305.388333,61.034529
305.388611,61.034529
305.705,61.111956
306.663333,61.111956
306.974444,61.218419
307.885,61.218419
308.168889,61.024851
308.999167,61.024851
308.999444,61.024851
309.435,61.866871
310.087222,61.866871
310.0875,61.866871
311.142778,61.866871
311.143056,61.866871
311.454167,63.299272
313.045556,64.112256
314.503611,64.828457
315.934722,65.496266
317.343611,66.154396
318.760556,66.744778
320.184167,67.296446
321.585278,67.848114
323.053889,68.428817
324.456389,68.980485
325.918611,69.512797
327.301944,70.045108
328.769167,70.596776
330.180556,71.10973
331.569444,71.632363
333.0425,72.164675
333.7875,72.445348
335.661944,73.122835
337.350833,73.800322
338.807778,74.284241
340.197778,74.787518
341.678889,75.358542
343.083889,75.881175
344.528333,76.403808
346.026389,76.945798
347.448056,77.497466
348.958333,78.087848
350.406389,78.629837
351.875833,79.191184
353.188056,79.723495
354.497778,80.217093
356.025,80.807474
356.503056,81.01072
357.668889,81.475283
359.6825,82.268911
360.827222,82.733473
361.579722,83.033503
362.584167,83.439996
362.816667,83.53678
363.344167,83.740026
363.768056,83.914237
364.89,84.369121
366.315,84.949824
367.862778,85.569241
369.29,86.149944
370.779444,86.808074
372.197222,87.369421
373.603056,87.892054
375.103889,88.511471
376.525278,89.082495
378.023611,89.672877
379.4425,90.234223
380.920278,90.814927
382.369722,91.39563
383.878611,91.986012
386.318611,92.924815
387.848056,93.505518
389.385,94.076543
390.756389,94.589498
391.069444,94.763709
392.518611,95.23795
394.013611,95.779939
395.448611,96.302572
396.903611,96.805848
398.352778,97.318803
399.866389,97.889828
401.282778,98.373747
402.789444,98.818953
404.216944,99.293194
407.479167,100.377173
409.503333,100.948198
410.937778,101.383726
412.288611,101.790218
413.898889,102.322529
415.430556,102.709665
416.905833,103.116157
418.076111,103.425865
419.467778,103.822679
420.819444,104.180779
421.103056,104.248528
421.214167,104.287242
421.398333,104.384026
422.869444,104.703412
424.273611,105.071191
425.728889,105.429291
427.125278,105.826105
428.51,106.0971
429.944167,106.445522
431.788611,106.871371
433.873333,107.403682
435.243056,107.703712
436.668056,107.965029
438.071667,108.25538
439.469167,108.545732
440.891667,108.913511
442.271667,109.174827
443.679722,109.407109
445.087778,109.678103
446.479444,109.949098
447.881667,110.210415
449.228056,110.452374
452.234722,111.062113
453.783056,111.275037
455.678889,111.594424
457.825556,111.942846
459.208611,112.175127
460.557222,112.388052
461.971389,112.610655
463.507222,112.901006
464.772778,113.036504
466.195278,113.249428
467.557778,113.442996
468.994444,113.646242
470.369167,113.917237
471.753611,114.043056
473.108056,114.217267
474.434444,114.401156
475.140556,114.49794
475.964167,114.604402
477.345278,114.788292
482.076389,115.378673
483.432778,115.601276
485.027778,115.746452
486.495556,115.910985
488.013889,116.094874
489.415,116.259407
490.876667,116.414261
492.286389,116.578793
493.684167,116.733648
495.073056,116.888502
496.429722,117.023999
497.860556,117.178853
499.300833,117.333708
500.736667,117.478883
502.128333,117.691808
503.0325,117.720843
503.888889,117.866019
506.294722,118.04023
507.777778,118.185406
509.383611,117.778913
510.881944,118.030552
512.273333,118.214441
513.843611,118.39833
515.240556,118.553184
516.664722,118.708039
518.075556,118.862893
519.426944,118.99839
520.859722,119.143566
523.606111,119.395204
525.361111,119.559737
527.766944,119.78234
528.8725,119.869445
529.740278,119.937194
531.155556,120.063013
532.598056,120.188832
533.171667,120.237224
533.555278,120.266259
534.541111,120.353364
536.118611,120.479183
536.4875,120.508219
538.033056,120.634038
539.599444,120.808249
541.058611,120.866319
542.428056,120.972781
543.826389,121.069565
545.226667,121.185706
546.746667,121.301846
548.164722,121.466379
549.554444,121.495414
551.801944,121.727695
553.734167,121.863193
555.1975,121.901906
556.685556,122.008369
558.282222,122.114831
559.820833,122.279363
561.1975,122.29872
562.700833,122.405183
564.140556,122.569715
565.591944,122.59875
567.123056,122.695534
568.509167,122.78264
569.925,122.869745
571.391944,123.024599
572.9025,123.063313
574.349167,121.447022
580.091111,104.59695
581.781111,101.015947
583.127222,98.828631
584.571111,96.534854
586.1425,94.241076
587.547778,92.305398
589.113056,90.408434
590.511389,88.811501
591.995833,87.282315
593.414167,85.907984
594.888056,84.543332
596.353333,83.323855
597.843333,82.220519
599.891389,80.83651
602.036111,79.578319
603.461667,78.833083
604.9675,78.097526
606.387222,77.89428
608.03,77.584571
609.413333,77.342612
610.875278,77.323255
612.258889,77.420039
613.778889,77.507144
615.129722,77.458752
616.722222,77.420039
618.120833,77.332933
619.542222,77.226471
620.981667,77.090974
623.888611,76.819979
623.888889,76.819979
625.575,76.539306
626.990278,76.365095
628.521944,76.161849
630.08,75.977959
631.411667,75.784391
632.906389,75.561789
634.343889,75.31015
635.821389,75.145618
637.171389,74.89398
638.361111,74.89398
638.585,74.748804
640.073611,74.487488
641.440833,74.284241
642.936944,74.080995
644.397222,73.906784
645.891111,73.606754
647.882778,73.268011
648.401944,73.268011
650.334722,72.880875
651.887222,72.619559
653.380278,72.387278
654.933333,72.116283
656.466667,71.864645
657.950278,71.622685
659.348889,71.419439
660.805278,71.187157
662.326944,70.964555
663.769167,70.75163
665.133333,70.538706
666.128056,70.538706
666.480833,70.335459
667.83,70.141892
669.223611,69.928967
670.201389,69.822505
670.412778,69.754756
670.475,69.754756
671.950278,69.532153
672.085,69.532153
672.805833,69.532153
673.476111,69.348264
673.538611,69.348264
675.074444,69.077269
675.138889,69.077269
676.596667,68.854666
676.661389,68.854666
678.183333,68.65142
679.179722,68.65142
679.570556,68.438496
681.039444,68.225571
682.325278,68.099752
683.774444,67.925541
685.174444,67.702938
686.569167,67.528727
686.633611,67.528727
687.644722,67.528727
688.048056,67.344838
689.411111,67.20934
689.473333,67.20934
690.810833,67.025451
690.873056,67.025451
692.173333,66.899632
693.670556,66.618959
697.149444,66.357642
697.218333,66.357642
698.681389,66.173753
698.743889,66.173753
700.096111,66.057612
701.521944,65.922115
702.971389,65.844688
704.545,65.660798
704.607222,65.660798
706.139444,65.554336
707.681667,65.35109
709.099444,65.418839
710.544167,65.312376
712.075,65.167201
713.5,65.031703
715.066111,64.896206
717.276111,64.673603
720.0775,64.402608
720.077778,64.402608
720.211111,64.402608
722.232222,64.199362
724.275278,64.015473
726.416389,63.821905
727.877222,63.696086
728.070833,63.686407
728.441944,63.657372
728.506667,63.657372
731.792778,63.367021
733.513889,63.212166
735.288056,63.105704
737.1425,62.960528
737.202778,62.960528
739.056944,62.757282
739.116944,62.757282
740.938056,63.115383
743.888333,65.273663
744.019722,65.273663
745.882778,66.764135
745.943056,66.764135
747.703889,68.080395
747.763889,68.080395
749.827222,69.474083
749.889444,69.474083
752.136944,70.954876
753.885556,71.942072
753.955,71.942072
755.488889,72.706664
755.553056,72.706664
756.998889,73.442222
757.061667,73.442222
758.625,74.187458
758.692222,74.187458
760.1675,74.835909
760.234722,74.835909
761.596944,75.474683
761.659722,75.474683
763.201944,76.171527
763.264722,76.171527
764.698333,76.829657
764.770278,76.829657
766.148056,77.449074
766.212778,77.449074
770.186944,79.15247
770.249722,79.15247
771.816111,79.849314
771.878889,79.849314
773.375278,80.53648
773.44,80.53648
775.461667,81.359142
775.524444,81.359142
777.045833,82.007594
777.108333,82.007594
778.596944,82.656046
778.659722,82.656046
780.171944,83.35289
780.234722,83.35289
781.687778,83.933593
781.750278,83.933593
783.198056,84.601402
783.260556,84.601402
784.678889,85.172427
784.741667,85.172427
786.147778,85.811201
786.210556,85.811201
787.583056,86.401582
787.650278,86.401582
789.055278,87.030677
789.118056,87.030677
791.76,88.075943
791.895278,88.075943
793.375556,88.714717
793.438056,88.714717
794.981389,89.372847
795.043889,89.372847
796.398333,89.95355
796.461111,89.95355
797.873333,90.543932
797.935833,90.543932
799.320833,91.124635
799.383333,91.124635
800.880833,91.75373
800.940833,91.75373
802.965833,92.586072
803.026111,92.586072
804.846667,93.331307
804.906667,93.331307
806.716389,94.124935
806.776389,94.124935
808.461389,94.763709
808.521389,94.763709
810.875556,95.702512
810.935833,95.702512
812.903056,96.476783
812.963056,96.476783
815.852778,97.589798
815.988333,97.589798
817.299444,98.151144
817.366667,98.151144
818.742778,98.751204
818.805278,98.751204
820.128056,99.206088
820.190833,99.206088
821.510556,99.709365
821.573056,99.709365
822.926111,100.231997
822.988889,100.231997
824.410278,100.773987
824.4775,100.773987
825.930556,101.315977
825.993056,101.315977
827.305,101.857967
827.367778,101.857967
828.733333,102.370921
828.795833,102.370921
830.108889,102.79677
830.176111,102.79677
831.523889,103.33876
831.591111,103.33876
832.994722,103.783966
833.0575,103.783966
834.421944,104.335634
834.488889,104.335634
835.911111,104.771161
835.973889,104.771161
837.374722,105.245402
837.437222,105.245402
839.787222,106.009995
839.9225,106.009995
841.438889,106.522949
842.938056,106.977833
844.359167,107.403682
845.830278,107.83921
847.291667,108.265059
848.751389,108.690908
849.562778,108.981259
850.378056,109.145792
851.847778,109.571641
853.242222,109.958777
