time,pressure
0.0,152.769586
0.433333,147.591649
0.916667,142.587923
1.416667,138.406859
1.883333,135.048459
2.316667,132.5224
2.8,130.12216
3.266667,128.02195
3.8,126.03788
4.166667,124.828082
4.55,123.666676
5.033333,122.331058
5.516667,121.198687
5.9,120.33731
6.316667,119.514647
6.783333,118.672628
7.25,117.879
7.766667,117.104729
8.183333,116.553061
8.633333,115.923966
9.083333,115.352941
9.483333,114.859343
10.483333,113.639866
11.0,113.010771
11.433333,112.488138
11.916667,111.994541
12.4,111.481586
12.866667,111.03638
13.3,110.591174
13.85,110.058863
14.3,109.633014
14.85,109.129738
15.3,108.723246
15.833333,108.326432
16.333333,107.948975
16.85,107.600553
17.333333,107.281166
17.833333,107.010171
18.3,106.748855
18.8,106.47786
19.283333,106.264935
19.8,106.022976
20.233333,105.839086
20.666667,105.674554
21.116667,105.500343
21.65,105.316453
22.566667,105.026102
23.4,104.813177
23.966667,104.73575
24.383333,104.561539
24.85,104.280866
25.3,104.038906
25.8,103.787268
26.183333,103.584022
26.683333,103.332384
27.133333,103.11946
27.566667,102.916213
28.016667,102.703289
28.116667,102.703289
28.45,102.509721
29.0,102.27744
29.116667,102.27744
29.383333,102.27744
29.483333,102.064515
29.9,101.880626
30.4,101.880626
30.45,101.658023
30.65,101.658023
31.0,101.425742
31.466667,101.261209
31.683333,101.261209
31.933333,101.067641
32.0,101.067641
32.383333,100.903109
32.883333,100.709541
33.0,100.709541
33.266667,100.709541
33.466667,100.486938
34.216667,100.244979
34.266667,100.244979
34.583333,100.244979
34.666667,100.061089
35.083333,99.886878
35.516667,99.886878
35.566667,99.702989
36.016667,99.538456
36.1,99.538456
36.5,99.354567
37.033333,99.151321
37.133333,99.151321
37.416667,99.151321
37.566667,98.967431
38.05,98.812577
38.45,98.812577
38.583333,98.648045
38.716667,98.648045
39.116667,98.502869
39.65,98.357693
39.75,98.357693
40.0,98.357693
40.1,98.270588
40.55,98.173804
41.033333,98.086698
41.1,98.086698
41.4,98.086698
41.533333,98.028628
42.016667,97.951201
42.416667,97.951201
42.533333,97.873774
42.683333,97.873774
43.033333,97.806025
43.5,97.738276
43.683333,97.738276
43.95,97.738276
44.0,97.651171
44.483333,97.5931
44.983333,97.5931
45.033333,97.505995
45.233333,97.505995
45.466667,97.447925
45.983333,97.389854
46.1,97.370498
46.25,97.370498
46.5,97.370498
46.583333,97.312427
47.05,97.273714
47.483333,97.235
47.533333,97.235
47.8,97.235
47.966667,97.17693
48.35,97.157573
48.8,97.157573
48.85,97.147895
49.05,97.147895
49.283333,97.118859
49.766667,97.089824
50.05,97.089824
50.2,97.041432
50.333333,97.041432
50.683333,96.99304
51.15,96.964005
51.333333,96.964005
51.6,96.964005
51.65,96.93497
52.116667,96.93497
52.6,96.93497
52.65,96.896257
52.85,96.896257
53.1,96.731724
53.583333,96.557513
53.85,96.557513
54.15,96.373624
54.2,96.373624
54.683333,96.170378
55.166667,96.005845
55.233333,96.005845
55.483333,96.005845
55.716667,95.821956
56.1,95.705815
56.533333,95.705815
56.616667,95.531604
56.8,95.531604
57.083333,95.367071
57.466667,95.241252
57.833333,95.241252
58.1,95.241252
58.433333,94.960579
58.883333,94.825082
59.116667,94.825082
59.3,94.679906
59.383333,94.679906
59.733333,94.53473
60.133333,94.389554
60.416667,94.389554
60.583333,94.254057
60.683333,94.254057
61.1,94.079846
61.55,93.93467
61.7,93.93467
61.966667,93.93467
62.083333,93.770138
62.583333,93.624962
63.016667,93.624962
63.1,93.470108
63.283333,93.470108
63.6,93.295897
64.066667,93.150721
64.283333,93.150721
64.566667,92.97651
64.65,92.97651
65.083333,92.831334
65.6,92.715193
65.7,92.715193
65.95,92.715193
66.116667,92.579696
66.516667,92.482912
67.0,92.482912
67.083333,92.347415
67.25,92.347415
67.566667,92.240952
68.1,92.13449
68.283333,92.13449
68.533333,92.13449
68.583333,92.037706
69.533333,92.037706
69.8,92.037706
69.9,91.795747
70.316667,91.727998
70.833333,91.631214
70.9,91.631214
71.166667,91.631214
71.266667,91.573144
71.766667,91.486038
72.183333,91.486038
72.233333,91.408611
72.433333,91.408611
72.716667,91.321506
73.2,92.279666
73.433333,92.279666
73.666667,91.427968
73.716667,91.427968
74.133333,91.060189
74.35,90.905335
74.55,90.760159
74.7,90.653697
74.783333,90.653697
74.866667,90.556913
75.033333,90.556913
75.15,90.39238
75.35,90.27624
75.833333,90.024602
76.05,90.024602
76.266667,89.801999
76.333333,89.801999
76.433333,89.724572
76.966667,89.463255
77.35,89.463255
77.5,89.230974
77.633333,89.230974
77.966667,89.027728
78.5,88.843838
78.633333,88.843838
78.883333,88.708341
78.95,88.708341
79.35,88.543808
79.816667,88.369597
79.983333,88.369597
80.233333,88.224422
80.283333,88.224422
80.7,88.050211
81.166667,87.885678
81.3,87.885678
81.6,87.750181
81.683333,87.750181
82.483333,87.498543
82.683333,87.498543
82.95,87.382402
83.0,87.382402
83.45,87.227548
83.933333,87.072694
84.016667,87.072694
84.266667,87.072694
84.333333,86.937196
84.816667,86.801699
85.3,86.666201
85.35,86.666201
85.616667,86.666201
85.75,86.550061
86.166667,86.43392
86.683333,86.288744
86.733333,86.288744
87.0,86.288744
87.1,86.182282
87.583333,86.07582
88.066667,85.979036
88.116667,85.979036
88.383333,85.979036
88.466667,85.89193
88.916667,85.804825
89.366667,85.679006
89.433333,85.679006
89.683333,85.679006
89.783333,85.572544
90.266667,85.456403
90.716667,85.456403
90.766667,85.340262
90.983333,85.340262
91.2,85.253157
91.733333,85.146695
92.016667,85.146695
92.166667,85.069267
92.3,85.069267
92.583333,85.011197
92.866667,85.011197
93.033333,84.93377
93.516667,84.856343
94.016667,84.778916
94.5,84.711167
94.983333,84.662775
95.466667,84.614383
95.983333,84.556313
96.45,84.866021
97.016667,86.956553
97.466667,86.404885
97.95,85.959679
98.35,85.708041
98.866667,85.417689
99.4,85.156373
99.866667,84.953127
100.283333,84.759559
100.733333,84.595026
101.183333,84.430494
101.7,84.294996
102.083333,84.178856
102.483333,84.082072
103.033333,83.927218
103.433333,83.830434
103.9,83.723972
104.333333,83.636866
104.783333,83.569117
105.183333,83.501369
105.633333,83.43362
106.466667,83.278766
106.983333,83.201339
107.433333,83.13359
107.933333,83.056163
108.366667,82.988414
108.833333,82.930344
109.316667,82.881952
109.816667,82.814203
110.266667,82.746455
110.8,82.698063
111.266667,82.649671
111.683333,82.5916
112.15,82.552887
112.583333,82.523852
113.033333,82.485138
113.516667,82.417389
114.0,82.388354
114.366667,82.359319
114.85,82.320605
115.25,82.272214
115.716667,82.223822
116.2,82.185108
116.666667,82.136716
117.083333,82.107681
117.6,82.078646
118.116667,82.039932
118.316667,82.039932
118.983333,82.010897
119.316667,82.010897
119.45,81.972184
119.983333,81.914113
120.45,81.865721
120.966667,81.827008
121.45,81.768937
121.866667,81.720545
122.25,81.701189
122.75,81.643118
123.183333,81.585048
123.733333,81.488264
124.166667,81.420515
124.65,81.362445
125.116667,81.27534
125.55,81.207591
126.05,81.110807
126.566667,81.023702
127.1,80.907561
127.566667,80.810777
128.016667,80.73335
128.5,80.646244
128.916667,80.578496
129.683333,80.442998
130.283333,80.336536
130.766667,80.278466
131.183333,80.220395
131.716667,80.13329
132.133333,80.07522
132.533333,80.017149
132.95,79.968757
133.4,79.920365
133.883333,79.881652
134.316667,79.842938
134.766667,79.794546
135.233333,79.755833
135.75,79.707441
136.116667,79.678406
136.583333,79.639692
137.05,79.600979
137.516667,79.571944
138.0,79.542908
138.466667,79.504195
138.933333,79.446124
139.4,79.426768
139.883333,79.388054
140.383333,79.359019
140.883333,79.329984
141.333333,79.300949
141.866667,79.252557
142.3,79.213843
142.8,79.184808
143.3,79.155773
143.75,79.126738
144.25,79.107381
144.783333,79.078346
145.216667,79.039632
145.75,78.971884
145.933333,78.971884
146.166667,78.93317
146.583333,78.913813
146.966667,78.913813
147.016667,78.8751
147.366667,78.8751
147.433333,78.826708
147.966667,78.778316
148.366667,78.778316
148.433333,78.720245
148.633333,78.720245
148.883333,78.671854
149.333333,78.63314
149.65,78.63314
149.816667,78.555713
149.933333,78.555713
150.25,78.516999
150.75,78.458929
150.95,78.458929
151.183333,78.400859
151.233333,78.400859
151.716667,78.323432
152.166667,78.246004
152.233333,78.246004
152.516667,78.246004
152.566667,78.187934
153.016667,78.120185
153.633333,78.042758
153.733333,78.042758
153.983333,78.042758
154.266667,77.936296
154.683333,77.878226
155.0,77.878226
155.183333,77.800799
155.266667,77.800799
155.35,77.800799
155.633333,77.713693
155.866667,77.713693
156.083333,77.636266
156.516667,77.578196
156.9,77.578196
156.983333,77.49109
157.15,77.49109
157.466667,77.413663
157.933333,77.326558
158.15,77.326558
158.35,77.287844
158.416667,77.287844
158.85,77.229774
159.3,77.152347
159.416667,77.152347
159.683333,77.152347
159.75,77.094276
160.2,77.026528
160.566667,76.987814
160.683333,76.987814
160.933333,76.987814
161.033333,76.929744
161.483333,76.89103
161.933333,76.823282
162.0,76.823282
162.266667,76.823282
162.4,76.765211
162.883333,76.716819
163.316667,76.658749
163.383333,76.658749
163.65,76.658749
163.8,76.620035
164.3,76.571643
164.666667,76.571643
164.75,76.523252
164.916667,76.523252
165.166667,76.465181
165.733333,76.387754
165.933333,76.387754
166.166667,76.339362
166.233333,76.339362
166.666667,76.29097
167.15,76.242578
167.233333,76.242578
167.5,76.242578
167.633333,76.213543
168.05,76.136116
168.533333,76.107081
168.633333,76.107081
168.883333,76.107081
169.033333,76.068367
169.5,76.029654
169.666667,76.029654
169.933333,75.99094
170.35,75.952227
170.816667,75.903835
171.25,75.8748
171.75,75.816729
172.166667,75.787694
172.65,75.729624
173.566667,75.642518
174.016667,75.603805
174.5,75.565091
174.95,75.507021
175.383333,75.497343
175.866667,75.468307
176.3,75.448951
176.766667,75.410237
177.2,75.39088
177.666667,75.361845
178.5,75.323132
178.933333,75.313453
179.366667,75.284418
179.85,75.294096
180.283333,75.284418
180.75,75.265061
181.233333,75.216669
181.633333,75.177956
182.033333,75.148921
182.516667,75.129564
182.983333,75.100529
183.466667,75.100529
183.933333,75.081172
184.333333,75.081172
184.85,75.071493
185.316667,75.052137
185.8,75.03278
186.316667,75.023102
186.766667,75.023102
187.216667,75.03278
187.683333,75.03278
188.133333,75.023102
188.583333,75.013423
189.116667,74.994066
189.533333,74.994066
190.066667,74.994066
190.533333,74.965031
191.016667,74.926318
191.483333,74.916639
191.883333,74.887604
192.316667,74.858569
192.85,74.839212
193.316667,74.79082
193.816667,74.752107
194.183333,74.713393
194.65,74.67468
195.1,74.626288
195.6,74.587574
196.05,74.548861
196.466667,74.519825
196.916667,74.49079
197.383333,74.452077
197.85,74.423042
198.283333,74.413363
198.733333,74.384328
199.166667,74.335936
200.066667,74.287544
200.466667,74.268187
200.95,74.239152
201.616667,74.219795
202.316667,74.210117
202.866667,74.19076
203.316667,74.181082
203.8,74.161725
204.216667,74.152047
204.683333,74.161725
205.2,74.142368
205.7,74.142368
206.183333,74.13269
206.7,74.123012
207.15,74.123012
207.683333,74.093976
208.083333,74.055263
208.533333,74.016549
209.033333,73.958479
209.45,73.948801
209.966667,73.919765
210.45,73.89073
210.9,73.871373
211.366667,73.842338
211.883333,73.803625
212.3,73.793946
212.8,73.764911
213.266667,73.764911
213.75,73.735876
214.2,73.716519
214.666667,73.706841
215.133333,73.687484
215.683333,73.658449
216.1,73.658449
216.616667,73.639092
217.183333,73.648771
217.666667,73.658449
218.083333,73.648771
218.483333,73.639092
218.916667,73.639092
219.416667,73.639092
219.916667,73.668127
220.366667,73.706841
220.816667,73.755233
221.266667,73.77459
221.8,73.784268
222.25,73.793946
222.733333,73.803625
223.233333,73.822982
223.716667,73.852017
224.2,73.861695
224.733333,73.871373
225.166667,73.881052
225.8,73.900409
226.683333,73.919765
227.183333,73.919765
227.683333,73.919765
228.15,73.919765
228.566667,73.910087
229.05,73.900409
229.583333,73.900409
230.15,73.900409
230.6,73.910087
231.15,73.910087
231.55,73.910087
231.983333,73.910087
232.45,73.89073
232.9,73.881052
233.383333,73.871373
233.933333,73.871373
234.35,73.871373
234.883333,73.861695
235.3,73.861695
235.833333,73.861695
236.3,73.881052
236.716667,73.881052
237.216667,73.871373
238.133333,73.852017
238.683333,73.842338
239.1,73.822982
239.583333,73.822982
240.1,73.813303
240.533333,73.803625
241.05,73.803625
241.566667,73.803625
242.066667,73.793946
242.5,73.793946
242.95,73.784268
243.366667,73.77459
243.833333,73.764911
244.266667,73.77459
244.733333,73.77459
244.966667,73.77459
245.166667,73.784268
245.633333,73.793946
246.0,73.793946
246.116667,73.813303
246.55,73.803625
247.016667,73.803625
247.516667,73.813303
248.0,73.793946
248.433333,73.784268
248.933333,73.77459
249.366667,73.755233
249.883333,73.726198
250.733333,73.716519
251.183333,73.697162
251.683333,73.668127
252.1,73.648771
252.583333,73.619735
253.066667,73.600379
253.55,73.5907
254.1,73.561665
254.55,73.53263
255.083333,73.522952
255.533333,73.503595
256.016667,73.484238
256.466667,73.464881
256.933333,73.455203
257.416667,73.416489
257.966667,73.406811
258.466667,73.387454
259.016667,73.368097
259.466667,73.339062
259.966667,73.329384
260.433333,73.319705
260.9,73.300349
261.333333,73.310027
261.833333,73.310027
262.166667,73.300349
262.583333,73.29067
263.133333,73.29067
265.1,89.927818
265.583333,87.69211
266.083333,86.056463
266.55,84.807951
267.016667,83.694936
267.55,82.572244
268.0,81.759259
268.133333,81.517299
268.433333,81.014023
269.1,79.968757
270.033333,78.93317
270.433333,78.57507
270.916667,78.178256
271.366667,77.800799
271.883333,77.423342
272.35,77.094276
272.533333,77.094276
272.866667,76.803925
273.283333,76.571643
273.6,76.571643
273.866667,76.281292
274.766667,75.865121
275.266667,75.63284
275.8,75.419915
276.25,75.27474
276.783333,75.061815
277.233333,74.906961
277.75,74.73275
278.266667,74.568217
278.716667,74.442398
279.166667,74.306901
279.716667,74.161725
280.183333,74.035906
280.633333,73.948801
281.116667,73.842338
281.6,73.735876
282.05,73.648771
282.483333,73.571343
283.0,73.493916
283.483333,73.377776
283.966667,73.300349
284.483333,73.203565
285.016667,73.106781
285.5,73.039032
286.066667,72.942248
286.466667,72.8745
286.983333,72.797072
287.416667,72.739002
287.883333,72.671253
288.35,72.603505
288.866667,72.535756
289.3,72.487364
289.766667,72.438972
290.466667,72.361545
290.883333,72.322832
291.25,72.303475
291.75,72.255083
292.25,72.206691
292.716667,72.167977
293.166667,72.138942
293.633333,72.080872
294.033333,72.042158
294.45,72.003445
294.933333,71.97441
295.333333,71.916339
295.783333,71.887304
296.25,71.838912
296.7,71.800199
297.133333,71.771163
297.85,71.693736
298.6,71.616309
299.083333,71.587274
299.566667,71.538882
300.033333,71.500169
300.516667,71.461455
301.0,71.442098
301.5,71.393706
302.0,71.364671
302.433333,71.316279
302.983333,71.287244
303.4,71.267887
303.916667,71.229174
304.366667,71.209817
304.866667,71.171103
305.366667,71.142068
305.9,71.093676
306.35,71.064641
306.85,71.016249
307.3,70.987214
307.783333,70.958179
308.266667,70.919465
308.7,70.89043
309.116667,70.861395
309.666667,70.83236
310.116667,70.803325
310.166667,70.803325
310.616667,70.793646
311.083333,70.783968
311.216667,70.783968
311.433333,70.764611
311.866667,70.745254
312.35,70.716219
312.866667,70.687184
313.3,70.658149
313.816667,70.638792
314.2,70.619435
314.65,70.5904
315.1,70.571043
315.583333,70.571043
316.05,70.551687
316.466667,70.542008
316.933333,70.53233
317.75,70.493616
318.216667,70.483938
318.7,70.445224
319.116667,70.454903
319.65,70.445224
320.1,70.406511
320.516667,70.387154
321.016667,70.358119
321.466667,70.338762
321.966667,70.300049
322.983333,70.29037
323.483333,70.300049
324.0,70.300049
324.4,70.309727
324.866667,70.300049
325.333333,70.271013
325.833333,70.261335
326.283333,70.241978
326.733333,70.2323
327.116667,70.212943
327.6,70.203265
328.116667,70.183908
328.55,70.17423
329.133333,70.17423
329.666667,70.164551
330.183333,70.145194
330.683333,70.145194
331.133333,70.145194
331.55,70.116159
332.016667,70.096802
332.483333,70.096802
333.0,70.096802
333.416667,70.077446
333.916667,70.067767
334.316667,70.087124
334.733333,70.096802
335.116667,70.096802
335.583333,70.096802
336.05,70.116159
336.516667,70.145194
336.95,70.125838
337.383333,70.164551
337.833333,70.183908
338.233333,70.203265
338.65,70.212943
339.116667,70.222621
339.533333,70.241978
340.016667,70.241978
340.416667,70.241978
340.866667,70.241978
341.3,70.222621
341.783333,70.193586
342.183333,70.17423
342.583333,70.145194
343.05,70.145194
343.5,70.116159
344.0,70.096802
344.416667,70.096802
344.866667,70.096802
345.266667,70.096802
346.0,70.067767
346.7,70.048411
347.233333,70.048411
347.75,70.048411
348.266667,70.038732
348.766667,70.048411
349.25,70.048411
349.733333,70.038732
350.2,70.048411
350.683333,70.048411
351.1,70.058089
351.466667,70.058089
352.016667,70.058089
352.55,70.058089
353.066667,70.067767
353.583333,70.077446
354.1,70.087124
354.566667,70.096802
355.05,70.106481
355.516667,70.116159
356.016667,70.145194
356.416667,70.164551
356.916667,70.193586
357.366667,70.222621
357.883333,70.222621
358.35,70.2323
358.883333,70.222621
359.316667,70.203265
359.816667,70.203265
360.283333,70.183908
360.7,70.17423
361.15,70.17423
361.566667,70.164551
361.95,70.154873
362.35,70.154873
362.816667,70.154873
363.25,70.154873
363.75,70.125838
364.133333,70.125838
364.583333,70.116159
364.966667,70.125838
365.333333,70.125838
365.85,70.116159
366.316667,70.106481
366.783333,70.087124
367.216667,70.087124
367.683333,70.087124
368.116667,70.087124
368.583333,70.087124
369.05,70.077446
369.5,70.087124
369.966667,70.096802
370.85,70.125838
371.35,70.154873
371.9,70.154873
372.4,70.154873
372.85,70.164551
373.316667,70.164551
373.816667,70.164551
374.266667,70.154873
374.7,70.125838
375.183333,70.125838
375.6,70.106481
377.166667,70.106481
377.683333,70.096802
378.166667,70.096802
378.6,70.116159
379.216667,70.125838
379.733333,70.145194
380.266667,70.164551
380.783333,70.183908
381.266667,70.183908
381.766667,70.183908
382.283333,70.164551
382.766667,70.17423
383.283333,70.17423
383.85,70.164551
384.333333,70.164551
384.833333,70.164551
385.333333,70.145194
385.9,70.145194
386.366667,70.145194
386.9,70.125838
387.45,70.125838
388.033333,70.125838
388.533333,70.125838
389.0,70.145194
389.45,70.125838
389.933333,70.125838
390.4,70.116159
390.916667,70.116159
391.4,70.116159
391.95,70.145194
392.366667,70.145194
392.433333,70.145194
392.933333,70.145194
393.4,70.145194
393.466667,70.145194
394.0,70.116159
394.883333,70.116159
395.366667,70.106481
395.883333,70.096802
396.35,70.096802
396.883333,70.096802
397.383333,70.096802
397.933333,70.096802
398.433333,70.096802
398.9,70.096802
399.366667,70.096802
399.883333,70.087124
400.366667,70.096802
400.833333,70.087124
401.333333,70.087124
401.933333,70.067767
402.466667,70.058089
402.95,70.048411
403.483333,70.029054
404.016667,70.038732
404.5,70.029054
405.0,70.029054
405.416667,70.029054
405.883333,70.019375
406.366667,70.019375
406.833333,70.019375
