time,pressure
0.0,393.310807
0.25,382.471014
0.5,377.535036
0.75,372.88941
1.0,368.63092
1.5,363.598159
2.0,361.178562
3.0,359.146101
4.0,357.694342
5.0,356.62972
6.0,355.468313
7.0,354.306907
8.0,353.822988
9.0,353.339068
10.0,352.951933
11.0,352.564797
12.0,351.88731
13.0,351.693742
14.0,351.500175
15.0,350.919471
16.0,350.048417
17.0,349.854849
17.5,349.758065
20.333333,349.564497
21.666667,349.661281
23.416667,349.564497
24.183333,349.467713
24.966667,349.467713
26.133333,349.370929
27.3,349.370929
28.45,349.274146
29.2,349.177362
29.966667,349.177362
32.5,349.177362
34.5,348.983794
36.5,348.88701
38.5,348.693442
41.5,348.596658
43.833333,348.403091
45.833333,349.661281
48.0,349.661281
50.666667,349.661281
53.25,348.112739
54.083333,348.015955
56.5,348.015955
59.5,347.919171
62.5,347.822388
65.5,347.725604
68.75,347.725604
69.666667,347.62882
70.666667,347.62882
71.666667,347.62882
72.666667,347.62882
73.666667,347.532036
95.5,347.1449
119.5,346.854549
143.5,346.564197
167.5,346.370629
191.5,346.177062
215.5,345.983494
239.5,345.789926
263.5,345.693142
287.5,345.596358
311.5,345.693142
335.5,345.596358
359.5,345.499575
383.5,345.499575
407.5,346.080278
455.5,346.080278
479.5,346.660981
503.5,345.112439
527.5,344.62852
551.5,344.1446
575.5,343.757465
599.5,343.370329
623.5,343.079978
647.5,342.88641
671.5,342.692842
695.5,342.402491
719.5,342.208923
743.5,342.015355
767.5,341.725004
791.5,341.531436
815.5,341.241084
839.5,341.62822
863.5,342.499275
887.5,343.176762
911.5,343.757465
935.5,344.338168
959.5,344.822087
983.5,345.209223
1007.5,345.693142
1031.5,346.080278
1055.5,346.370629
1079.5,346.757765
1103.5,347.048117
1127.5,347.435252
1151.5,347.532036
1175.5,347.62882
1199.5,347.725604
1223.5,347.822388
1247.5,348.112739
1271.5,348.499875
1295.5,348.790226
1319.5,349.080578
1343.5,349.274146
1367.5,349.564497
1391.5,349.951633
1415.5,350.241984
1439.5,350.532336
1463.5,350.725904
1487.5,351.016255
1511.5,351.113039
1535.5,351.403391
1559.5,351.596959
1583.5,351.790526
1607.5,351.88731
1631.5,352.177662
1655.5,352.274446
1679.5,352.564797
1703.5,352.758365
1727.5,352.951933
1751.5,353.048717
1775.5,353.1455
1799.5,353.1455
1823.5,353.1455
1847.5,353.242284
1871.5,353.339068
1895.5,353.532636
1919.5,353.62942
1943.5,353.919771
1967.5,354.016555
1991.5,354.210123
2015.5,354.306907
2087.5,355.37153
2111.5,355.274746
2135.5,355.177962
2159.5,355.177962
2183.5,354.984394
2207.5,354.88761
2231.5,354.790826
2255.5,354.790826
2279.5,354.790826
2303.5,354.790826
2327.5,354.790826
2351.5,354.790826
2375.5,354.790826
2399.5,354.597259
2423.5,354.597259
2447.5,354.500475
2471.5,354.306907
2495.5,354.210123
2519.5,354.210123
2543.5,354.016555
2567.5,354.113339
2591.5,354.016555
2615.5,354.016555
2639.5,353.919771
2663.5,353.919771
2687.5,354.016555
2711.5,354.016555
2735.5,354.016555
2759.5,354.016555
2783.5,353.919771
2807.5,353.919771
2831.5,353.822988
2855.5,353.726204
2879.5,353.532636
2903.5,352.758365
2927.5,353.435852
2951.5,354.113339
2975.5,354.597259
2999.5,355.274746
3071.5,359.63002
3095.5,358.178262
3119.5,358.275046
3143.5,358.275046
3167.5,358.37183
3191.5,358.37183
3215.5,358.37183
3239.5,358.37183
3263.5,358.468613
3287.5,358.565397
3311.5,358.662181
3335.5,358.758965
3359.5,358.758965
3383.5,358.855749
3407.5,358.855749
3431.5,359.63002
3455.5,359.242884
3479.5,358.468613
3503.5,358.081478
3527.5,357.694342
3551.5,357.113639
3575.5,356.726504
3599.5,356.532936
3623.5,355.952233
3647.5,355.565097
3671.5,355.274746
3695.5,354.88761
3719.5,354.597259
3743.5,354.403691
3767.5,354.210123
3791.5,354.016555
3815.5,353.726204
3839.5,353.62942
3863.5,353.435852
3887.5,353.339068
3911.5,353.1455
3935.5,352.855149
3959.5,352.855149
3983.5,352.758365
4007.5,352.758365
4031.5,352.855149
4055.5,352.855149
4079.5,352.758365
4103.5,352.661581
4127.5,352.564797
4151.5,352.468013
4175.5,352.468013
4199.5,352.37123
4223.5,352.274446
4247.5,352.661581
4271.5,352.468013
4295.5,352.274446
4319.5,352.177662
4343.5,352.080878
4367.5,351.88731
4391.5,351.693742
4415.5,351.596959
4439.5,351.403391
4463.5,351.209823
4487.5,351.016255
4511.5,351.016255
4535.5,350.822688
4559.5,350.338768
4583.5,349.951633
4607.5,349.854849
4631.5,349.661281
4655.5,349.370929
4679.5,349.177362
4703.5,348.983794
4727.5,348.790226
4751.5,348.596658
4775.5,348.499875
4799.5,348.403091
4823.5,348.306307
4847.5,348.112739
4871.5,348.112739
4895.5,348.015955
4919.5,347.822388
4943.5,347.725604
4967.5,347.435252
4991.5,347.338468
5015.5,347.241684
5039.5,347.048117
5063.5,346.951333
5087.5,346.757765
5111.5,346.564197
5135.5,346.467413
5159.5,346.273846
5183.5,346.177062
5207.5,346.080278
5231.5,345.88671
5255.5,345.693142
5279.5,345.693142
5303.5,345.596358
5327.5,347.241684
5351.5,346.273846
5375.5,346.273846
5399.5,346.080278
5423.5,345.88671
5447.5,345.693142
5471.5,345.693142
5495.5,345.693142
5519.5,345.693142
5543.5,345.693142
5567.5,345.789926
5591.5,345.983494
5615.5,346.080278
5639.5,346.273846
5663.5,346.370629
5687.5,346.564197
5711.5,346.757765
5735.5,346.854549
5759.5,346.951333
5783.5,346.951333
5807.5,347.048117
5831.5,347.1449
5855.5,347.241684
5879.5,347.241684
5903.5,347.435252
5927.5,360.984994
5951.5,369.88911
5975.5,371.147301
5999.5,372.115139
6023.5,372.986194
6047.5,373.663681
6071.5,374.341168
6095.5,374.921872
6119.5,375.502575
6143.5,375.986494
6167.5,376.37363
6191.5,376.760765
6215.5,377.147901
6239.5,377.535036
6263.5,378.018956
6287.5,378.406091
6311.5,378.89001
6335.5,379.180362
6359.5,379.664281
6383.5,380.051417
6407.5,380.438552
6431.5,380.825688
6455.5,381.116039
6479.5,381.309607
6503.5,381.309607
6527.5,371.728004
6551.5,356.242584
6575.5,355.661881
6599.5,354.984394
6623.5,354.500475
6767.5,365.824188
6791.5,366.985594
6815.5,363.307807
6839.5,362.920672
6863.5,362.533536
6887.5,362.243184
6911.5,362.146401
6935.5,361.759265
6959.5,361.565697
6983.5,361.275346
7007.5,360.984994
7031.5,360.791426
7055.5,360.791426
7079.5,361.275346
7103.5,361.081778
7127.5,361.081778
7151.5,360.984994
7175.5,360.984994
7199.5,361.081778
7223.5,360.984994
7247.5,361.081778
7271.5,360.984994
7295.5,360.984994
7319.5,360.984994
7343.5,361.178562
7367.5,361.275346
7391.5,361.275346
7415.5,361.468913
7439.5,361.178562
7463.5,361.565697
7487.5,361.759265
7511.5,361.565697
7535.5,361.662481
7559.5,361.565697
7583.5,361.468913
7607.5,361.468913
7631.5,361.468913
7655.5,361.565697
7679.5,361.565697
7703.5,361.468913
7727.5,361.178562
7751.5,361.468913
7775.5,361.565697
7799.5,361.565697
7823.5,361.759265
7847.5,361.759265
7871.5,361.759265
7895.5,361.952833
7919.5,361.952833
7943.5,362.049617
7967.5,362.146401
7991.5,362.146401
8015.5,362.243184
8039.5,362.146401
8063.5,362.243184
8087.5,362.243184
8111.5,362.243184
8135.5,362.243184
8159.5,362.146401
8183.5,362.049617
8207.5,361.759265
8231.5,361.759265
8255.5,361.759265
8279.5,361.856049
8303.5,362.049617
8327.5,362.146401
8351.5,362.339968
8375.5,362.533536
8399.5,362.63032
8423.5,362.727104
8447.5,362.823888
8471.5,363.114239
8495.5,363.307807
8519.5,363.598159
8543.5,363.791726
8567.5,363.88851
8591.5,364.178862
8615.5,364.565997
8639.5,364.759565
8663.5,364.953133
8687.5,365.243484
8711.5,365.437052
8735.5,366.017755
8759.5,366.404891
8783.5,366.598459
8807.5,366.985594
8831.5,367.275946
8855.5,367.759865
8879.5,368.340568
8903.5,368.921272
8927.5,369.695543
8951.5,370.37303
8975.5,371.050517
8999.5,371.728004
9023.5,372.308707
9047.5,372.695843
9071.5,373.179762
9095.5,374.437952
9119.5,374.147601
9143.5,374.437952
9167.5,374.825088
9191.5,375.018656
9215.5,375.309007
9239.5,378.89001
9263.5,387.890911
9287.5,388.568398
9311.5,389.342669
9335.5,390.020156
9359.5,390.600859
9383.5,391.084778
9407.5,391.568698
9431.5,381.309607
9455.5,380.244985
9479.5,379.664281
9503.5,379.083578
9527.5,378.599659
9551.5,378.212523
9599.5,378.212523
9623.5,378.018956
9647.5,377.922172
9671.5,377.728604
9695.5,377.535036
9719.5,377.438252
9743.5,377.63182
9767.5,377.922172
9791.5,377.341468
9815.5,377.341468
9839.5,377.341468
9863.5,377.341468
9887.5,377.438252
9911.5,377.438252
9935.5,377.438252
9959.5,377.63182
9983.5,377.922172
10007.5,378.212523
10031.5,378.406091
10055.5,382.277446
10079.5,381.019256
10103.5,380.051417
10127.5,380.341768
10151.5,380.825688
10175.5,381.599959
10199.5,382.277446
