time,pressure
0.0,283.851097
0.25,277.656929
0.5,270.107787
0.75,264.687891
1.0,259.655129
1.5,249.879958
2.0,240.879058
3.0,225.780774
4.0,213.392438
5.0,203.133348
6.0,193.745312
7.0,186.002603
8.0,178.356677
9.0,171.968941
10.0,166.645828
11.0,161.419499
12.0,157.064225
13.0,152.515383
14.0,148.160109
15.0,143.901618
16.0,139.739912
16.833333,137.126747
18.916667,131.126147
21.583333,125.319115
24.25,120.673489
29.583333,113.511483
31.25,113.221131
34.25,111.769373
36.583333,110.898318
39.083333,110.220831
41.583333,109.156208
43.75,108.18837
45.75,107.317315
48.083333,106.059124
49.25,105.478421
50.25,105.091286
51.25,104.510582
52.25,104.123447
53.25,103.349176
54.25,102.671689
55.25,101.897418
56.25,101.316715
57.25,100.736011
58.25,100.058524
59.25,99.381037
60.25,98.606766
61.916667,97.348576
63.75,95.70325
65.666667,94.154708
67.583333,93.090086
69.75,91.928679
71.75,90.670489
73.75,88.347676
75.216667,86.605566
78.166667,85.347376
78.25,85.250592
81.25,83.895618
85.083333,81.185669
86.083333,80.024263
88.083333,80.314614
91.916667,80.508182
94.583333,79.733911
96.583333,79.346776
100.083333,78.95964
101.666667,78.475721
103.916667,79.056424
106.5,79.249992
107.5,79.056424
108.5,78.766073
109.5,78.282153
110.5,77.895018
111.5,77.314314
115.083333,76.249692
118.75,75.088285
120.583333,74.314014
123.916667,72.862256
125.833333,72.087985
127.75,71.410498
129.666667,70.636227
131.75,69.765172
133.583333,68.797334
135.916667,67.635927
138.166667,66.668089
139.833333,65.893818
142.0,64.538843
144.25,63.764572
145.0,63.571005
147.333333,63.280653
150.916667,64.345276
154.583333,63.95814
156.583333,63.764572
159.916667,63.183869
177.583333,55.925079
201.583333,54.570105
225.583333,53.118346
249.583333,50.989101
273.583333,50.408398
297.583333,50.408398
321.583333,50.408398
345.583333,49.440559
369.583333,48.569504
393.583333,48.279153
417.583333,48.279153
441.583333,48.182369
465.583333,47.892017
489.583333,48.569504
513.583333,48.085585
537.583333,47.21453
561.583333,46.827395
585.583333,46.149908
609.583333,45.859556
633.583333,47.601666
657.583333,47.504882
681.583333,49.053424
705.583333,50.989101
729.583333,47.795234
753.583333,46.827395
777.583333,45.472421
801.583333,44.988501
825.583333,44.407798
849.583333,44.891717
873.583333,44.21423
897.583333,44.988501
921.583333,44.891717
945.583333,45.182069
969.583333,45.085285
993.583333,44.988501
1017.583333,44.891717
1041.583333,44.794933
1065.583333,44.794933
1089.583333,44.794933
1113.583333,44.794933
1137.583333,45.182069
1161.583333,45.859556
1185.583333,45.085285
1209.583333,44.794933
1233.583333,44.601366
1257.583333,44.311014
1281.583333,43.923879
1305.583333,45.472421
1329.583333,48.279153
1353.583333,48.182369
1377.583333,51.182669
1401.583333,52.150508
1425.583333,60.570705
1449.583333,65.409898
1473.583333,61.151408
1497.583333,65.119547
1521.583333,67.732711
1545.583333,69.378037
1569.583333,62.312814
1593.583333,67.345576
1617.583333,69.184469
1641.583333,80.024263
1665.583333,72.281553
1689.583333,68.506982
1713.583333,66.087385
1737.583333,67.248792
1761.583333,67.248792
1785.583333,65.603466
1809.583333,65.506682
1833.583333,65.022763
1857.583333,65.70025
1881.583333,65.409898
1905.583333,66.474521
1929.583333,68.21663
1953.583333,68.023063
1977.583333,67.345576
2001.583333,63.861356
2025.583333,64.442059
2049.583333,68.21663
2073.583333,67.44236
2097.583333,66.764872
2121.583333,65.70025
2145.583333,65.313114
2169.583333,64.732411
2193.583333,65.506682
2217.583333,69.668389
2241.583333,72.184769
2265.583333,66.184169
2289.583333,66.668089
2313.583333,68.70055
2337.583333,68.894118
2361.583333,72.95904
2385.583333,79.637127
2409.583333,71.604066
2433.583333,75.088285
2457.583333,92.799734
2481.583333,84.185969
2505.583333,78.862856
2529.583333,76.830395
2553.583333,76.152908
2577.583333,76.44326
2601.583333,76.830395
2625.583333,76.927179
2649.583333,76.540043
2673.583333,76.346476
2697.583333,76.636827
2721.583333,76.733611
2745.583333,77.314314
2769.583333,77.991802
2793.583333,78.475721
2817.583333,75.185069
2841.583333,70.539443
2865.583333,69.474821
2889.583333,68.894118
2913.583333,70.055524
2937.583333,69.861956
2961.583333,68.990901
2985.583333,68.313414
3009.583333,68.603766
3033.583333,68.21663
3057.583333,68.990901
3081.583333,68.990901
3105.583333,69.087685
3129.583333,69.378037
3153.583333,69.571605
3177.583333,68.797334
3201.583333,68.603766
3225.583333,68.70055
3249.583333,68.70055
3273.583333,68.603766
3297.583333,68.410198
3321.583333,68.21663
3345.583333,68.023063
3369.583333,68.119847
3393.583333,67.44236
3417.583333,67.44236
3441.583333,67.635927
3465.583333,67.732711
3489.583333,67.44236
3513.583333,67.539143
3537.583333,67.732711
3561.583333,67.926279
3585.583333,68.119847
3609.583333,67.829495
3633.583333,67.926279
3657.583333,67.732711
3681.583333,67.829495
3705.583333,67.829495
3729.583333,66.474521
3753.583333,65.506682
3777.583333,70.539443
3801.583333,83.218131
3825.583333,70.055524
3849.583333,83.218131
3873.583333,72.281553
3897.583333,65.893818
3921.583333,72.765472
3945.583333,73.346176
3969.583333,73.44296
3993.583333,73.249392
4017.583333,73.152608
4041.583333,72.571905
4065.583333,72.184769
4089.583333,72.184769
4113.583333,72.378337
4137.583333,100.639228
4161.583333,73.830095
4185.583333,72.571905
4209.583333,73.055824
4233.583333,72.862256
4257.583333,72.184769
4281.583333,72.571905
4305.583333,72.765472
4329.583333,73.346176
4353.583333,72.571905
4377.583333,71.507282
4401.583333,71.120147
4425.583333,70.733011
4449.583333,71.507282
4473.583333,70.829795
4497.583333,70.345876
4521.583333,70.249092
4545.583333,70.055524
4569.583333,69.861956
4593.583333,70.152308
4617.583333,70.055524
4641.583333,69.765172
4665.583333,70.152308
4689.583333,71.797634
4713.583333,70.829795
4737.583333,70.44266
4761.583333,67.732711
4785.583333,70.345876
4809.583333,70.055524
4833.583333,69.668389
4857.583333,70.249092
4881.583333,70.345876
4905.583333,70.926579
4929.583333,71.216931
4953.583333,70.345876
4977.583333,70.345876
5001.583333,70.345876
5025.583333,70.055524
5049.583333,69.95874
5073.583333,69.571605
5097.583333,69.571605
5121.583333,69.087685
5145.583333,68.990901
5169.583333,68.797334
5193.583333,68.506982
5217.583333,68.70055
5241.583333,69.474821
5265.583333,69.087685
5289.583333,68.990901
5313.583333,69.861956
5337.583333,70.055524
5361.583333,69.668389
5385.583333,69.571605
5409.583333,69.087685
5433.583333,70.345876
5457.583333,69.378037
5481.583333,69.668389
5505.583333,69.474821
5529.583333,69.087685
5553.583333,69.087685
5577.583333,68.894118
5601.583333,68.119847
5625.583333,68.603766
5649.583333,68.797334
5673.583333,69.474821
5697.583333,69.95874
5721.583333,69.765172
5745.583333,69.571605
5769.583333,69.571605
5793.583333,69.861956
5817.583333,69.571605
5841.583333,69.378037
5865.583333,69.378037
5889.583333,69.281253
5913.583333,69.281253
5937.583333,70.152308
5961.583333,70.345876
5985.583333,70.345876
6009.583333,71.120147
6033.583333,70.152308
6057.583333,70.249092
6081.583333,70.152308
6105.583333,69.861956
6129.583333,69.95874
6153.583333,70.345876
6177.583333,70.539443
6201.583333,70.345876
6225.583333,70.926579
6249.583333,70.829795
6273.583333,70.733011
6297.583333,70.829795
6321.583333,70.539443
6345.583333,70.636227
6369.583333,70.926579
6393.583333,70.636227
6417.583333,70.539443
6441.583333,70.829795
6465.583333,70.733011
6489.583333,70.926579
6513.583333,69.571605
6537.583333,69.668389
6561.583333,69.571605
6585.583333,69.861956
6609.583333,69.861956
6633.583333,70.926579
6657.583333,70.539443
6681.583333,70.539443
6705.583333,70.44266
6729.583333,69.378037
6753.583333,67.44236
6777.583333,68.313414
6801.583333,68.410198
6825.583333,68.023063
6849.583333,67.829495
6873.583333,68.603766
6897.583333,69.087685
6921.583333,68.990901
6945.583333,69.184469
6969.583333,69.281253
6993.583333,69.378037
7017.583333,69.571605
7041.583333,69.765172
7065.583333,69.474821
7089.583333,69.668389
7113.583333,69.765172
7137.583333,69.765172
7161.583333,70.539443
7185.583333,69.861956
7209.583333,68.894118
7233.583333,69.184469
7257.583333,70.539443
7281.583333,70.539443
7305.583333,70.539443
7329.583333,70.926579
7353.583333,71.216931
7377.583333,71.604066
7401.583333,71.507282
7425.583333,71.120147
7449.583333,71.216931
7473.583333,71.313714
7497.583333,71.313714
7521.583333,71.410498
7545.583333,71.991201
7569.583333,71.991201
7593.583333,72.378337
7617.583333,73.249392
7641.583333,72.475121
7665.583333,73.055824
7689.583333,71.894418
7713.583333,72.571905
7737.583333,72.862256
7761.583333,72.281553
7785.583333,71.313714
7809.583333,71.120147
7833.583333,71.604066
7857.583333,71.70085
7881.583333,71.410498
7905.583333,71.216931
7929.583333,72.378337
7953.583333,72.184769
7977.583333,72.184769
8001.583333,71.507282
8025.583333,71.507282
8049.583333,71.797634
8073.583333,71.894418
8097.583333,71.507282
8121.583333,71.604066
8145.583333,71.797634
8169.583333,71.991201
8193.583333,72.281553
8217.583333,72.571905
8241.583333,73.926879
8265.583333,72.184769
8289.583333,68.21663
8313.583333,72.087985
8337.583333,77.217531
8361.583333,71.216931
8385.583333,69.378037
8409.583333,62.409598
8433.583333,65.70025
8457.583333,72.475121
8481.583333,70.733011
8505.583333,71.216931
8529.583333,71.410498
8553.583333,72.668689
8577.583333,72.571905
8601.583333,71.797634
8625.583333,71.991201
8649.583333,72.281553
8673.583333,71.991201
8697.583333,72.087985
8721.583333,70.249092
8745.583333,69.765172
8769.583333,69.668389
8793.583333,69.95874
8817.583333,71.991201
8841.583333,72.571905
8865.583333,71.894418
8889.583333,71.894418
8913.583333,72.184769
8937.583333,72.571905
8961.583333,72.475121
8985.583333,72.378337
9009.583333,72.281553
9033.583333,72.281553
9057.583333,72.184769
9081.583333,72.281553
9105.583333,72.95904
9129.583333,73.249392
9153.583333,73.539743
9177.583333,74.023663
9201.583333,72.571905
9225.583333,72.475121
9249.583333,71.507282
9273.583333,72.475121
9297.583333,72.571905
9321.583333,72.862256
9345.583333,72.862256
9369.583333,72.765472
9393.583333,72.765472
9417.583333,72.862256
9441.583333,72.95904
9465.583333,71.797634
9489.583333,72.087985
9513.583333,72.668689
9537.583333,72.95904
9561.583333,73.346176
9585.583333,73.346176
9609.583333,73.346176
9633.583333,73.152608
9657.583333,74.894718
9681.583333,75.378637
9705.583333,75.572205
9729.583333,76.056124
9753.583333,75.572205
9777.583333,73.249392
9801.583333,67.345576
9825.583333,66.184169
9849.583333,65.119547
9873.583333,63.667788
9897.583333,63.95814
9921.583333,63.571005
9945.583333,61.538543
9969.583333,61.925679
9993.583333,61.054624
10017.583333,61.248192
10041.583333,60.764272
10065.583333,60.183569
10089.583333,60.667488
10113.583333,61.248192
10137.583333,60.280353
10161.583333,59.990001
10185.583333,59.409298
10209.583333,59.506082
10233.583333,59.312514
10257.583333,59.506082
10281.583333,60.377137
10305.583333,60.377137
10329.583333,60.667488
10353.583333,61.828895
10377.583333,62.022463
10401.583333,59.21573
10425.583333,58.925379
10449.583333,58.538243
10473.583333,58.925379
10497.583333,59.409298
10521.583333,60.377137
10545.583333,60.473921
10569.583333,60.764272
10593.583333,61.828895
10617.583333,60.861056
10641.583333,61.344976
10665.583333,61.925679
10689.583333,61.538543
10713.583333,61.635327
10737.583333,61.344976
10761.583333,61.732111
10785.583333,61.828895
10809.583333,62.603166
10833.583333,62.506382
10857.583333,62.796734
10881.583333,62.69995
10905.583333,63.183869
10929.583333,64.829195
10953.583333,64.732411
10977.583333,62.409598
11001.583333,60.95784
11025.583333,60.183569
11049.583333,60.280353
11073.583333,60.183569
11097.583333,60.280353
11121.583333,58.731811
11145.583333,58.441459
11169.583333,59.21573
11193.583333,59.69965
11217.583333,59.21573
11241.583333,59.118947
11265.583333,59.312514
11289.583333,59.602866
11313.583333,59.506082
11337.583333,62.893518
11361.583333,61.538543
11385.583333,61.344976
11409.583333,59.409298
11433.583333,60.473921
11457.583333,62.022463
11481.583333,59.118947
11505.583333,58.635027
11529.583333,58.635027
11553.583333,59.118947
11577.583333,59.893217
11601.583333,58.344676
11625.583333,60.95784
11649.583333,58.925379
11673.583333,58.731811
11697.583333,59.312514
11721.583333,59.893217
11745.583333,60.473921
11769.583333,60.861056
11793.583333,59.990001
11817.583333,58.828595
11841.583333,59.69965
11865.583333,60.183569
11889.583333,60.473921
11913.583333,60.473921
11937.583333,59.312514
11961.583333,59.796434
