time,pressure
0.0,137.049558
0.841389,135.032582
1.233611,133.745357
1.630278,132.854945
2.035556,132.041961
2.407222,131.0838
2.847778,130.474062
3.24,129.835288
3.6225,129.080374
4.031389,128.606133
4.432222,128.141571
4.84,127.444727
5.211389,127.06727
5.6375,126.641421
6.01,126.022004
6.408056,125.712295
6.833056,125.412265
7.236111,124.802527
7.621667,124.560567
8.015278,124.260537
8.415556,123.689512
8.840833,123.476588
9.465278,122.98299
9.847778,122.673282
10.247778,122.247433
10.664167,122.063543
11.058889,121.715121
11.459444,121.357021
11.878611,121.192489
12.246667,120.94085
12.662778,120.52468
13.056667,120.360147
13.457222,120.089152
13.884444,119.750409
14.266389,119.614911
14.691667,119.198741
15.104444,119.053565
15.465278,118.898711
15.899167,118.501897
16.319444,118.366399
16.740833,118.24058
17.14,117.843767
17.564444,117.746983
17.944444,117.611485
18.32,117.195315
18.737778,117.117888
19.142778,117.001747
19.565833,116.633968
19.970278,116.546863
20.368611,116.314581
20.763056,116.043587
21.144167,115.956481
21.560833,115.78227
21.966667,115.491918
22.371944,115.617738
22.756111,115.433848
23.135833,115.704843
23.557222,115.491918
23.9575,115.327386
24.327778,115.588702
24.750833,115.337064
25.143889,115.356421
25.573333,115.18221
25.976111,115.366099
26.375556,114.988642
26.8075,115.298351
27.207222,115.017678
27.630556,115.211245
27.999167,114.891858
28.408333,115.346743
28.801111,114.843467
29.191389,114.872502
29.611389,114.949929
30.016667,114.466009
30.404167,114.862823
30.823333,114.562793
31.211944,114.795075
31.635278,114.436974
32.008611,114.862823
32.420278,114.262763
32.835278,114.514401
33.475833,114.175658
33.850278,114.698291
34.249444,114.011125
34.6675,114.34019
35.0575,114.156301
35.469722,113.875628
35.893611,114.04016
36.261111,113.74013
36.680278,113.894985
37.074444,113.614311
37.476389,114.049839
37.901944,113.449779
38.275556,113.759487
38.688056,113.459457
39.067222,113.265889
39.467222,113.469136
39.891667,113.062643
40.286944,113.343317
40.705,113.052965
41.073056,113.536884
41.473333,112.869076
41.896111,113.236854
42.291667,112.859397
42.713056,112.849719
43.12,112.869076
43.522222,112.414191
43.940833,112.743257
44.3325,112.452905
44.759167,112.607759
45.128056,112.298051
45.532778,112.743257
45.955556,112.114161
46.3175,112.23998
46.740278,112.259337
47.141667,111.804453
47.511944,112.152875
47.930278,111.852845
48.321111,112.094805
48.744722,111.717347
49.143889,112.172232
49.570556,111.552815
49.984444,111.833488
50.391111,111.591528
50.811667,111.485066
51.235556,111.552815
51.422222,111.28182
51.830556,111.688312
52.341111,111.146323
52.5825,111.088252
52.989167,111.272142
53.406944,110.855971
53.837222,111.146323
54.224444,110.855971
54.656944,111.020504
55.091111,110.720474
55.481667,111.204393
55.916111,110.575298
56.33,110.98179
56.756111,110.391408
57.460278,110.575298
57.796667,110.284946
58.219444,110.565619
58.657222,110.159127
59.079167,110.643046
59.482778,110.004273
59.917778,110.362373
60.330556,109.917167
60.761389,110.072022
61.140556,110.013951
61.563889,109.597781
61.948889,109.888132
62.361944,109.617137
62.798056,109.78167
63.212222,109.510675
63.636111,109.684886
64.019444,109.355821
64.4325,109.713921
64.839444,109.220324
65.241944,109.326786
65.643056,109.336464
66.036111,108.920294
66.455833,109.220324
66.902222,108.871902
67.328889,109.113861
67.789722,108.813831
68.218333,108.968686
68.647222,108.697691
69.0825,108.833188
69.509722,108.562193
69.894444,109.026756
70.310833,108.426696
70.749167,108.804153
71.1775,108.252485
71.589167,108.52348
72.010833,108.310555
72.422222,108.194415
72.865833,108.28152
73.288333,107.952455
73.730556,108.146023
74.167778,107.68146
74.600833,107.991168
75.034444,107.555641
75.438611,107.807279
75.853056,107.536284
76.658056,107.391108
77.080278,107.816957
77.51,107.236254
77.924167,107.545963
78.348889,107.110435
78.779444,107.255611
79.168889,107.178184
79.577778,106.771692
79.988611,107.062043
80.411389,106.732978
80.856944,106.916867
81.566389,107.033008
81.566667,107.033008
81.949167,106.510375
82.369444,106.616837
82.779444,106.42327
83.166667,106.094205
83.608611,106.190988
84.032222,105.93935
84.428333,105.910315
84.855,105.842566
85.281111,105.52318
85.724444,105.561893
86.148333,105.319934
86.590833,105.368325
87.012778,105.213471
87.426111,105.058617
87.842778,105.058617
88.236667,104.777944
88.667222,104.758587
89.099167,104.748909
89.521111,104.545663
89.966111,104.429522
90.389444,104.468235
90.835278,104.32306
91.218056,104.584376
91.627222,104.168205
92.056944,104.448879
92.48,103.935924
92.910833,104.0811
93.333611,103.810105
93.773889,104.003673
94.173056,103.790748
94.571389,103.955281
95.004444,103.703643
95.566944,103.848819
95.980833,103.616537
96.391389,103.752035
96.815833,103.519754
97.196667,103.935924
97.631111,103.403613
98.033611,103.684286
98.436389,103.432648
98.835278,103.306829
99.218889,103.452005
99.653611,103.093904
100.0675,103.345543
100.483056,103.12294
100.8825,103.248759
101.295,103.006799
101.694722,103.42297
102.116389,102.88098
102.535833,103.171332
102.959167,102.851945
104.778333,102.590628
105.753889,102.503523
105.754167,102.503523
106.960833,102.445453
107.514722,102.261563
108.311111,102.416417
108.819167,102.377704
109.398333,102.097031
109.948889,102.22285
111.076111,101.903463
111.636944,102.271242
112.2625,101.671182
112.951667,101.651825
113.563056,101.806679
114.172222,101.62279
114.744722,101.458257
115.318889,101.584076
115.876944,101.225976
116.474722,101.293724
117.048056,101.613111
117.640278,101.148549
118.186389,101.264689
118.718611,101.216297
127.6975,100.132318
128.276944,99.929072
129.383056,99.735504
129.945833,99.958107
130.790278,99.851645
131.361389,99.851645
132.241667,99.706469
132.874444,99.445153
133.428333,99.551615
134.005,99.416117
134.560556,99.212871
135.118611,99.348369
135.7425,99.028982
136.243333,99.241906
136.813889,99.396761
137.326667,98.98059
137.8925,99.106409
138.385556,98.796701
138.934167,98.999947
139.407222,98.854771
139.961389,98.68056
141.003611,98.632168
141.533611,98.73863
142.143611,98.68056
143.343056,98.554741
143.968056,98.545063
145.555833,98.157927
151.455,97.7224
153.038333,97.770792
154.3175,97.277194
154.962778,97.373978
156.789167,97.209445
157.633889,97.141696
158.293056,96.899737
158.943889,96.831988
161.749167,96.590028
162.430278,96.493244
163.061944,96.599707
164.684167,96.52228
165.333056,96.251285
167.947222,95.989968
169.265556,96.241606
170.694167,95.73833
174.597222,95.544762
175.957778,95.109235
176.855,95.012451
177.463889,95.147949
178.086667,94.896311
179.346944,94.983416
179.920833,94.78017
180.466667,94.634994
181.100278,94.78017
181.525278,94.625316
181.826389,94.828562
182.356667,94.528532
182.904722,94.605959
183.444444,94.305929
183.978333,94.509175
185.368333,94.344642
185.919444,94.141396
186.430556,94.354321
187.015556,94.025256
187.580278,94.12204
188.095,94.102683
188.626389,93.860723
189.178889,93.928472
189.718889,93.734904
191.290833,93.52198
192.225556,93.492944
192.990833,93.551015
193.284167,93.425196
193.598333,93.734904
193.891111,93.463909
197.850278,92.863849
198.481111,92.805779
198.934722,93.096131
199.933611,93.057417
200.7325,92.950955
201.350833,92.718673
201.695556,92.97999
202.134167,92.612211
202.595833,92.931598
203.042778,92.563819
203.467778,92.796101
203.930278,92.486392
204.368611,92.728352
204.796944,92.331538
205.234444,92.602533
205.679444,92.244432
206.112222,92.496071
206.510278,92.399287
206.917222,92.196041
207.338611,92.408965
207.780833,92.060543
209.626667,92.13797
209.991667,92.050865
210.424722,92.341216
210.850833,91.973438
211.269167,91.992794
211.708056,91.760513
212.094722,91.915367
212.504722,91.83794
212.948333,91.83794
213.373333,91.992794
213.809444,91.605659
215.228056,91.983116
215.656944,91.625016
216.078889,91.625016
216.506111,91.605659
216.921111,91.663729
217.343889,91.489518
217.755833,91.547589
218.141111,91.634694
218.579722,91.324986
219.283611,91.450805
219.662778,91.431448
220.083889,91.450805
220.499444,91.42177
220.877778,91.354021
221.263611,91.47984
221.675556,91.286272
222.093333,91.266915
222.785556,91.053991
223.180833,91.208845
223.593889,91.392734
223.996111,90.957207
224.388889,91.141096
224.800556,91.315307
225.191111,90.908815
225.606389,91.063669
226.007778,91.247559
226.401389,90.802353
226.820833,90.986242
227.205278,91.150775
227.622222,90.753961
227.991111,90.899137
228.384444,91.044312
229.112222,90.802353
229.513889,90.831388
229.962778,90.657177
230.380833,90.724926
230.786944,90.860423
231.161111,90.570071
231.601111,90.63782
232.029167,90.831388
232.418889,90.376504
232.857222,90.531358
233.276944,90.628142
233.708056,90.502323
234.111111,90.434574
234.518333,90.405539
234.993889,90.550715
235.410278,90.153901
235.851667,90.318433
236.265833,90.482966
236.693611,90.241006
237.081389,90.231328
237.489722,90.270041
237.930833,90.231328
238.379167,90.028082
238.843056,90.09583
239.232778,90.299077
239.677778,89.989368
240.231667,89.824836
240.643889,89.970011
241.043333,90.163579
241.467222,89.815157
241.924722,89.853871
242.365278,89.834514
242.758889,89.902263
243.125278,89.766765
243.525,89.708695
243.937222,89.776444
244.320278,89.67966
244.74,89.650625
245.269722,89.824836
245.807222,89.757087
246.222778,89.340916
246.633056,89.524806
247.021111,89.67966
247.463333,89.369951
247.930556,89.418343
248.3675,89.398987
248.786389,89.486092
249.216667,89.127992
249.641111,89.282846
250.040278,89.466735
250.425833,89.031208
250.872222,89.176384
251.301944,89.234454
251.728611,89.147349
252.172778,89.050565
252.603056,89.060243
253.033333,89.224776
253.445556,88.827962
253.872222,88.953781
254.310278,88.992494
254.721111,88.915067
255.149444,88.83764
255.592222,88.818283
256.036389,88.982816
256.431389,88.547289
256.848333,88.711821
257.251944,88.905389
257.691111,88.605359
258.131667,88.605359
258.535556,88.566645
258.9975,88.682786
259.425278,88.324686
259.931944,88.47954
260.428889,88.431148
260.921111,88.440826
261.382778,88.460183
261.598889,88.324686
262.249722,88.276294
265.023056,88.23758
265.925278,88.005299
266.399444,87.966585
266.891389,88.121439
267.383611,88.005299
268.183889,87.821409
268.677222,88.034334
269.141111,87.773018
269.590556,87.656877
270.056111,87.676234
270.493333,87.840766
270.948611,87.63752
271.339722,87.560093
271.843056,87.540736
272.295,87.69559
272.754167,87.502023
276.053333,87.211671
276.508056,87.318133
276.963611,87.182636
277.39,87.105209
277.86,87.076174
278.321389,87.124566
279.240556,86.814857
279.688889,86.940676
280.104167,87.085852
280.545278,86.882606
281.041389,86.689038
281.421667,86.814857
281.887778,87.018103
282.378333,86.805179
283.080833,86.930998
283.690278,86.882606
284.831111,86.718073
285.220278,86.476114
285.6625,86.524506
286.834167,86.447079
287.304444,86.601933
287.811944,86.49547
288.313056,86.263189
295.490278,85.740556
296.050556,85.663129
296.556111,85.77927
311.430833,84.801753
311.9225,84.99532
312.633611,84.724326
312.914722,84.617863
313.280556,84.704969
314.007222,84.646898
314.396389,84.598507
314.835278,84.685612
315.272222,84.424296
315.7075,84.540436
316.439167,84.424296
316.829444,84.453331
317.278611,84.598507
317.729167,84.327512
318.142778,84.385582
318.520556,84.559793
318.971667,84.308155
319.408889,84.298477
319.859444,84.259763
320.267778,84.375904
320.704722,84.056517
321.138889,84.182336
321.551667,84.27912
322.036389,84.211371
322.568333,84.085552
323.18,84.066195
323.8025,84.046838
324.593889,83.959733
326.388611,83.882306
326.930278,84.03716
327.530556,84.017803
328.056389,83.872628
328.961111,83.698417
329.264722,83.804879
329.521111,83.669381
329.928056,83.862949
330.244444,83.620989
330.560278,83.727452
331.184444,83.601633
331.499722,83.408065
332.203333,83.543562
332.577222,83.49517
332.914167,83.630668
333.248333,83.417743
333.599444,83.417743
333.9075,83.262889
334.225556,83.398387
334.501944,83.224176
334.8,83.359673
335.299444,83.49517
335.623056,83.320959
335.911111,83.485492
336.209167,83.301603
336.473333,83.388708
336.753333,83.253211
337.019167,83.272568
337.295278,83.204819
338.151667,83.098357
338.419722,83.098357
339.243056,83.088678
339.542222,83.272568
339.9075,82.885432
340.923889,82.982216
341.476111,82.953181
342.123056,82.914467
342.410278,82.914467
342.787222,82.875754
343.164444,82.991894
343.600556,82.827362
344.034167,82.808005
344.460833,82.759613
344.891111,82.885432
345.300278,82.585402
345.768889,82.701543
346.200556,82.682186
346.592222,82.653151
346.991944,82.653151
347.395278,82.653151
347.838611,82.653151
348.26,82.575724
348.703611,82.556367
349.141389,82.711221
349.519444,82.333764
349.932778,82.488618
350.359722,82.643472
350.800833,82.440226
351.2425,82.430548
351.700833,82.401513
352.131667,82.546688
352.594722,82.324086
353.028889,82.324086
353.45,82.266015
353.899167,82.411191
354.335,82.101483
354.777222,82.23698
355.201667,82.227302
355.603056,82.17891
356.009444,82.169231
356.435556,82.101483
356.883889,82.207945
357.320833,81.927272
357.743611,82.062769
358.178056,82.169231
358.601389,82.004699
359.02,81.99502
359.456389,81.946628
359.930833,82.091804
360.441111,81.946628
361.795278,82.314407
362.481111,81.99502
362.948611,82.014377
363.432222,82.082126
363.859444,81.772417
364.396944,81.907915
366.159722,81.782096
366.6325,81.743382
367.125,81.811131
367.6275,81.782096
368.0725,81.491744
368.506111,81.63692
368.983611,81.57885
369.455,81.69499
369.937222,81.520779
370.461111,81.365925
370.920278,81.472387
371.360556,81.443352
371.8525,81.540136
372.343056,81.356247
372.840556,81.240106
373.3025,81.317533
373.803889,81.259463
375.159722,81.220749
375.624167,81.172357
376.088056,81.327212
376.578889,81.182036
377.059722,80.97879
377.579444,81.09493
378.129444,81.056217
378.679167,81.027182
379.208889,80.97879
379.706667,81.143322
380.185833,80.97879
380.643611,80.823936
381.065556,80.901363
381.462222,81.007825
381.904167,80.756187
382.315,80.833614
382.7275,80.97879
383.123889,80.727152
383.509722,80.775544
383.946389,80.823936
384.3625,80.727152
384.861389,80.581976
385.271111,80.669081
385.700278,80.804579
386.121389,80.552941
386.605278,80.601333
387.016667,80.552941
387.424167,80.620689
387.862222,80.407765
388.309722,80.49487
388.958333,80.465835
389.351667,80.49487
389.775556,80.417443
390.191389,80.398087
390.644722,80.669081
391.071389,80.649725
391.459722,80.465835
391.888056,80.417443
393.088611,80.310981
393.477778,80.369051
393.951944,80.117413
394.417222,80.243232
394.890556,80.185162
395.359722,80.320659
395.831389,80.13677
396.278611,80.127092
396.758056,80.098057
397.220833,80.156127
397.693056,80.107735
398.159444,79.865775
398.633056,79.991594
399.087778,79.933524
399.536944,80.030308
399.948889,79.768991
400.415,79.865775
400.885833,79.788348
401.339722,79.914167
401.768889,79.604459
402.224167,79.730278
402.698056,79.691564
403.148333,79.798027
403.626944,79.614137
404.083333,79.633494
404.54,79.59478
404.986389,79.739956
405.421667,79.497997
405.892222,79.527032
406.345556,79.47864
406.815278,79.585102
407.266667,79.459283
407.735278,79.323786
408.213333,79.381856
408.679722,79.29475
409.189722,79.47864
409.7225,79.362499
410.279167,79.275394
410.854167,79.207645
411.425,79.139896
411.95,79.052791
412.464167,79.139896
413.238056,79.052791
413.890833,79.072147
414.555556,79.120539
417.406111,78.743082
417.923611,78.781796
419.107222,78.752761
419.685,78.714047
420.163889,78.685012
420.659444,78.665655
421.125,78.704369
421.634444,78.549515
422.119167,78.597906
422.626944,78.549515
423.106667,78.481766
423.591944,78.646298
424.064722,78.472087
424.569444,78.326912
425.051111,78.433374
425.530833,78.384982
426.01,78.539836
426.478889,78.365625
426.961667,78.220449
427.452222,78.317233
427.942222,78.249485
428.409444,78.404339
428.896667,78.239806
429.319722,78.201093
429.818611,78.162379
430.296389,78.075274
430.780278,78.239806
431.347778,78.162379
431.918611,78.104309
432.461389,77.997846
432.906111,78.007525
433.294722,77.930098
433.476389,77.97849
433.718056,78.017203
435.989167,77.707495
436.859167,77.852671
437.738333,77.746208
438.276667,77.73653
438.832778,77.697816
439.351944,77.659103
439.834722,77.823636
440.400278,77.755887
440.945833,77.668781
441.464444,77.552641
442.019444,77.446178
442.590278,77.397786
443.127778,77.523606
443.6775,77.475214
444.1725,77.4365
444.725278,77.388108
445.256111,77.49457
445.823889,77.523606
446.3525,77.426822
446.954167,77.388108
447.488056,77.271967
448.061944,77.213897
448.6175,77.097756
449.171389,77.117113
449.7625,77.126792
450.301667,77.165505
450.866667,77.13647
451.443611,77.107435
452.0025,77.0784
452.577778,77.039686
453.401944,76.89451
454.187778,77.088078
454.740556,77.000973
455.435556,77.0784
457.306944,76.807405
458.191111,76.710621
458.765833,76.720299
459.328611,76.749335
460.610833,76.546088
460.611111,76.546088
461.2575,76.59448
461.808056,76.497696
465.365556,76.449305
466.368889,76.381556
467.161389,76.381556
467.927778,76.352521
468.727778,76.217023
469.515556,76.255737
470.286944,76.187988
471.046667,76.323486
471.775833,76.129918
472.476667,76.120239
473.2925,76.062169
474.089722,76.100883
474.835556,76.004099
475.578889,75.955707
476.276111,75.897636
476.999167,75.99442
477.740278,75.820209
478.436667,75.849245
479.040278,75.810531
479.847778,75.675034
480.582222,75.810531
480.930556,75.742782
481.827778,75.791174
482.561389,75.616963
483.327778,75.704069
484.061667,75.568571
484.778889,75.63632
485.209167,75.616963
487.817222,75.520179
488.997222,75.452431
489.708611,75.539536
490.503333,75.384682
490.503611,75.384682
491.388611,75.345968
492.105278,75.433074
492.7775,75.258863
493.451944,75.229828
494.180556,75.220149
494.9,75.026582
495.62,75.181436
496.322222,75.258863
497.085833,75.084652
497.822778,75.074974
498.563333,75.007225
499.293056,75.104009
500.020556,74.939476
500.752778,74.958833
501.473333,74.852371
502.198611,74.920119
502.930556,75.016903
503.658611,74.842692
506.11,74.765265
506.890278,74.649125
507.735278,74.842692
509.757778,74.639446
510.63,74.629768
511.41,74.542662
512.222778,74.571697
513.081389,74.600733
513.927778,74.49427
514.661389,74.474914
516.381111,74.416843
517.223056,74.387808
518.082778,74.329738
518.921944,74.203919
519.754167,74.4362
520.573333,74.271667
522.138056,74.320059
522.928889,74.174884
523.738056,74.029708
524.512778,74.213597
525.314444,74.087778
527.022778,74.000673
527.874722,74.039386
528.684444,74.049065
529.413889,73.961959
530.385833,73.89421
531.138333,74.010351
532.424722,73.816783
533.550556,73.932924
535.130833,73.642572
535.762778,73.652251
536.449167,73.729678
537.193333,73.787748
537.998333,73.661929
538.789444,73.59418
539.575278,73.729678
540.275278,73.545788
541.0925,73.565145
543.096389,73.545788
543.909444,73.439326
544.689444,73.439326
545.395833,73.361899
547.858056,73.342542
548.597778,73.390934
549.284167,73.23608
549.99,73.255437
550.695278,73.216723
551.314722,73.158653
552.024444,73.168331
552.716944,73.226402
553.373333,73.245758
554.044722,73.081226
554.730556,73.071547
555.388333,73.071547
556.249444,73.032834
557.099167,72.965085
558.295,72.926372
558.96,72.945728
558.960278,72.945728
559.792778,72.858623
560.410556,72.868301
561.050278,72.887658
561.686389,72.897336
562.246111,72.848945
562.889444,72.868301
563.480556,72.819909
564.083889,72.819909
564.743889,72.839266
565.405,72.87798
566.050278,72.674734
566.713889,72.665055
567.341111,72.645698
567.933611,72.63602
568.577778,72.626342
569.201944,72.606985
569.851667,72.597306
570.507222,72.57795
571.166111,72.423095
571.8225,72.481166
572.455556,72.490844
573.123333,72.529558
573.830278,72.500523
575.647222,72.423095
577.029444,72.39406
577.762778,72.258563
578.460556,72.345668
579.163333,72.423095
579.879167,72.248884
580.229444,72.268241
581.522222,72.326312
583.464167,72.219849
583.464444,72.219849
584.434167,72.181136
585.196111,72.306955
585.876111,72.152101
586.568056,72.171457
587.288056,72.190814
587.980278,72.045638
588.658889,72.132744
