time,pressure
0.0,99.214544
0.01,99.097709
0.02,99.021223
0.03,98.961539
0.04,98.91211
0.05,98.869762
0.06,98.83265
0.07,98.79959
0.08,98.769768
0.09,98.742598
0.101111,98.715299
0.113333,98.68731
0.127222,98.658674
0.142778,98.629435
0.16,98.599639
0.179444,98.56933
0.201389,98.538552
0.226111,98.507346
0.253611,98.475755
0.284722,98.443816
0.319444,98.411566
0.358333,98.379038
0.401944,98.346265
0.451111,98.313274
0.506111,98.280092
0.567778,98.246742
0.637222,98.213247
0.715,98.179623
0.802222,98.145889
0.9,98.11206
1.009722,98.078148
1.133056,98.044165
1.271389,98.010121
1.426389,97.976024
1.600556,97.941883
1.795833,97.907704
2.014722,97.873492
2.260833,97.839253
2.536667,97.80499
2.846111,97.770708
3.193333,97.736408
3.583056,97.702095
4.020278,97.667771
4.510556,97.633436
5.061111,97.599093
5.678611,97.564744
6.371389,97.530389
7.148889,97.496029
8.021389,97.461666
9.0,97.4273
10.098056,97.392932
11.330278,97.358562
12.712778,97.32419
14.264167,97.289817
16.004444,97.255444
17.957222,97.22107
20.148611,97.186695
22.606944,97.152321
23.303611,97.143261
24.0,97.134468
24.01,97.134593
24.02,97.134632
24.03,97.134635
24.044167,97.134605
24.064722,97.134514
24.095,97.134325
24.139167,97.133977
24.204444,97.133388
24.3,97.132437
24.440278,97.13095
24.646389,97.128682
24.948611,97.125282
25.3925,97.120259
26.043889,97.11294
27.0,97.102419
28.403333,97.087535
30.463333,97.066875
33.486944,97.038866
37.924722,97.001953
44.438889,96.954873
46.219444,96.943197
48.0,96.93196
48.01,96.931398
48.02,96.93101
48.03,96.930693
48.044167,96.930318
48.064722,96.92986
48.095,96.929303
48.139167,96.928624
48.204444,96.927791
48.3,96.926751
48.440278,96.925423
48.646389,96.923686
48.948611,96.921363
49.3925,96.918195
50.043889,96.913813
51.0,96.907697
52.403333,96.899136
54.463333,96.88718
57.486944,96.87062
61.924722,96.848008
68.438889,96.817758
78.0,96.778351
92.033889,96.728614
94.016944,96.722212
96.0,96.715945
96.01,96.718784
96.02,96.720632
96.03,96.722068
96.044167,96.723676
96.064722,96.725514
96.095,96.72755
96.139167,96.729736
96.204444,96.732012
96.3,96.734308
96.440278,96.736547
96.646389,96.738637
96.948611,96.740464
97.3925,96.741879
98.043889,96.742678
99.0,96.742571
100.403333,96.741157
102.463333,96.737875
105.486944,96.731963
109.924722,96.722414
116.438889,96.707962
118.219444,96.704023
120.0,96.700106
120.01,96.69921
120.02,96.698616
120.03,96.698148
120.044167,96.697614
120.064722,96.69699
120.095,96.696275
120.139167,96.695471
120.204444,96.694573
120.3,96.693574
120.440278,96.692452
120.646389,96.69117
120.948611,96.689668
121.3925,96.687851
122.043889,96.68558
123.0,96.68265
124.403333,96.678765
126.463333,96.673499
129.486944,96.666253
133.924722,96.656207
140.438889,96.642278
142.219444,96.638604
144.0,96.63498
144.01,96.636208
144.02,96.637005
144.03,96.637623
144.044167,96.638313
144.064722,96.639098
144.095,96.639963
144.139167,96.640884
144.204444,96.641831
144.3,96.642766
144.440278,96.643647
144.646389,96.644419
144.948611,96.645014
145.3925,96.645336
146.043889,96.645253
147.0,96.644576
148.403333,96.643037
150.463333,96.640256
153.486944,96.635703
157.924722,96.628654
164.438889,96.618149
166.219444,96.615289
168.0,96.612442
168.01,96.610679
168.02,96.609519
168.03,96.60861
168.044167,96.607582
168.064722,96.606391
168.095,96.605046
168.139167,96.603561
168.204444,96.601948
168.3,96.600216
168.440278,96.598363
168.646389,96.596373
168.948611,96.594209
169.3925,96.591808
170.043889,96.58907
171.0,96.585849
172.403333,96.581927
174.463333,96.576989
177.486944,96.570587
181.924722,96.562096
188.438889,96.550663
190.219444,96.547681
192.0,96.544748
192.01,96.543484
192.02,96.54265
192.03,96.541996
192.044167,96.541255
192.064722,96.540394
192.095,96.539419
192.139167,96.538336
192.204444,96.537151
192.3,96.535867
192.440278,96.534475
192.646389,96.532953
192.948611,96.53126
193.3925,96.52933
194.043889,96.527064
195.0,96.524313
196.403333,96.520866
198.463333,96.516418
201.486944,96.510544
205.924722,96.502661
212.438889,96.491981
214.219444,96.48919
216.0,96.486444
216.01,96.488239
216.02,96.489409
216.03,96.490318
216.044167,96.491338
216.064722,96.492506
216.095,96.493803
216.139167,96.4952
216.204444,96.496664
216.3,96.498154
216.440278,96.499627
216.646389,96.501034
216.948611,96.502318
217.3925,96.503402
218.043889,96.504184
219.0,96.50452
220.403333,96.504208
222.463333,96.50296
225.486944,96.500379
229.924722,96.495913
236.438889,96.488823
238.219444,96.486843
240.0,96.484855
240.01,96.484781
240.02,96.484729
240.03,96.484686
240.044167,96.484634
240.064722,96.48457
240.095,96.48449
240.139167,96.48439
240.204444,96.484263
240.3,96.4841
240.440278,96.483885
240.646389,96.483595
240.948611,96.483197
241.3925,96.48264
242.043889,96.48185
243.0,96.480719
244.403333,96.479088
246.463333,96.476725
249.486944,96.473296
253.924722,96.468322
260.438889,96.46114
262.219444,96.4592
264.0,96.457271
264.01,96.456137
264.02,96.455391
264.03,96.454806
264.044167,96.454144
264.064722,96.453378
264.095,96.452512
264.139167,96.451554
264.204444,96.450513
264.3,96.449395
264.440278,96.448196
264.646389,96.446906
264.948611,96.445498
265.3925,96.44393
266.043889,96.442134
267.0,96.440011
268.403333,96.437412
270.463333,96.434122
273.486944,96.429834
277.924722,96.424109
284.438889,96.416339
286.219444,96.4143
288.0,96.412289
288.01,96.41103
288.02,96.410201
288.03,96.409553
288.044167,96.408818
288.064722,96.407968
288.095,96.407008
288.139167,96.405948
288.204444,96.404797
288.3,96.403562
288.440278,96.402241
288.646389,96.400824
288.948611,96.399285
289.3925,96.397579
290.043889,96.395641
291.0,96.393366
292.403333,96.390609
294.463333,96.387156
297.486944,96.382707
301.924722,96.37684
308.438889,96.368976
310.219444,96.366927
312.0,96.364913
312.01,96.366525
312.02,96.367576
312.03,96.368393
312.044167,96.369311
312.064722,96.370364
312.095,96.371534
312.139167,96.372798
312.204444,96.374126
312.3,96.375486
312.440278,96.376841
312.646389,96.378154
312.948611,96.37938
313.3925,96.380462
314.043889,96.381323
315.0,96.381858
316.403333,96.381917
318.463333,96.381289
321.486944,96.379679
325.924722,96.376677
332.438889,96.371722
334.219444,96.370316
336.0,96.368897
336.01,96.369888
336.02,96.370533
336.03,96.371036
336.044167,96.371599
336.064722,96.372244
336.095,96.372961
336.139167,96.373734
336.204444,96.374544
336.3,96.37537
336.440278,96.376189
336.646389,96.376974
336.948611,96.377693
337.3925,96.378306
338.043889,96.378756
339.0,96.378963
340.403333,96.378809
342.463333,96.378122
345.486944,96.376654
349.924722,96.374043
356.438889,96.369777
358.219444,96.368564
360.0,96.367339
360.01,96.3722
360.02,96.37538
360.03,96.37786
360.044167,96.380652
360.064722,96.383864
360.095,96.387455
360.139167,96.391366
360.204444,96.395525
360.3,96.399859
360.440278,96.404299
360.646389,96.408786
360.948611,96.413265
361.3925,96.417682
362.043889,96.421975
363.0,96.426067
364.403333,96.429851
366.463333,96.433174
369.486944,96.435812
373.924722,96.437442
380.438889,96.437599
382.219444,96.437377
384.0,96.437078
384.01,96.436701
384.02,96.436454
384.03,96.436261
384.044167,96.436043
384.064722,96.435791
384.095,96.435507
384.139167,96.435196
384.204444,96.43486
384.3,96.434503
384.440278,96.434126
384.646389,96.433729
384.948611,96.433307
385.3925,96.43285
386.043889,96.43234
387.0,96.431749
388.403333,96.431025
390.463333,96.430081
393.486944,96.428774
397.924722,96.426862
404.438889,96.423963
406.219444,96.423148
408.0,96.422325
408.01,96.421197
408.02,96.420457
408.03,96.419879
408.044167,96.419226
408.064722,96.418472
408.095,96.417624
408.139167,96.416694
408.204444,96.415693
408.3,96.414634
408.440278,96.413521
408.646389,96.412357
408.948611,96.411134
409.3925,96.409836
410.043889,96.408435
411.0,96.406887
412.403333,96.405122
414.463333,96.403039
417.486944,96.40048
421.924722,96.397211
428.438889,96.392882
430.219444,96.391752
432.0,96.390638
432.01,96.391755
432.02,96.392485
432.03,96.393052
432.044167,96.39369
432.064722,96.394422
432.095,96.395237
432.139167,96.396119
432.204444,96.397048
432.3,96.398004
432.440278,96.398965
432.646389,96.399905
432.948611,96.4008
433.3925,96.401617
434.043889,96.402312
435.0,96.402825
436.403333,96.403072
438.463333,96.402931
441.486944,96.40223
445.924722,96.400721
452.438889,96.398054
462.0,96.393731
476.033889,96.387057
478.016944,96.3861
480.0,96.385142
480.01,96.38314
480.02,96.381828
480.03,96.380803
480.044167,96.379646
480.064722,96.378313
480.095,96.376817
480.139167,96.375178
480.204444,96.373422
480.3,96.371571
480.440278,96.369641
480.646389,96.367642
480.948611,96.365572
481.3925,96.363419
482.043889,96.361157
483.0,96.358741
484.403333,96.356106
486.463333,96.353151
489.486944,96.349727
493.924722,96.345618
500.438889,96.340507
502.219444,96.33922
504.0,96.337967
504.01,96.340831
504.02,96.342704
504.03,96.344163
504.044167,96.345806
504.064722,96.347694
504.095,96.349803
504.139167,96.352097
504.204444,96.354531
504.3,96.35706
504.440278,96.359639
504.646389,96.362227
504.948611,96.364784
505.3925,96.367266
506.043889,96.369623
507.0,96.371785
508.403333,96.373662
510.463333,96.375128
513.486944,96.376009
517.924722,96.376067
524.438889,96.374973
526.219444,96.374541
528.0,96.374071
528.01,96.374442
528.02,96.374685
528.03,96.374873
528.044167,96.375085
528.064722,96.375327
528.095,96.375597
528.139167,96.375888
528.204444,96.376193
528.3,96.376506
528.440278,96.376816
528.646389,96.377114
528.948611,96.37739
529.3925,96.377627
530.043889,96.377804
531.0,96.377887
532.403333,96.377826
534.463333,96.377541
537.486944,96.376909
541.924722,96.375737
548.438889,96.373733
550.219444,96.373147
552.0,96.37255
552.01,96.371298
552.02,96.370478
552.03,96.369836
552.044167,96.369113
552.064722,96.368279
552.095,96.367343
552.139167,96.366317
552.204444,96.365217
552.3,96.364056
552.440278,96.362845
552.646389,96.361588
552.948611,96.360283
553.3925,96.358919
554.043889,96.357478
555.0,96.355927
556.403333,96.354214
558.463333,96.352262
561.486944,96.349953
565.924722,96.347109
572.438889,96.343459
574.219444,96.342523
576.0,96.341604
576.01,96.339227
576.02,96.33767
576.03,96.336453
576.044167,96.335081
576.064722,96.333499
576.095,96.331724
576.139167,96.329781
576.204444,96.327699
576.3,96.325507
576.440278,96.323225
576.646389,96.320864
576.948611,96.318427
577.3925,96.3159
578.043889,96.31326
579.0,96.310463
580.403333,96.307445
582.463333,96.304111
585.486944,96.300326
589.924722,96.295899
596.438889,96.290556
598.219444,96.289237
600.0,96.287961
600.01,96.284459
600.02,96.282164
600.03,96.280371
600.044167,96.27835
600.064722,96.27602
600.095,96.273405
600.139167,96.270544
600.204444,96.26748
600.3,96.264254
600.440278,96.260897
600.646389,96.257429
600.948611,96.253853
601.3925,96.250154
602.043889,96.246299
603.0,96.242233
604.403333,96.237875
606.463333,96.233106
609.486944,96.227766
613.924722,96.221633
620.438889,96.214414
622.219444,96.212662
624.0,96.210979
624.01,96.212094
624.02,96.21282
624.03,96.213384
624.044167,96.214018
624.064722,96.214743
624.095,96.215549
624.139167,96.216417
624.204444,96.217327
624.3,96.218254
624.440278,96.219173
624.646389,96.220052
624.948611,96.220858
625.3925,96.221546
626.043889,96.222057
627.0,96.222311
628.403333,96.222196
630.463333,96.221563
633.486944,96.220213
637.924722,96.217888
644.438889,96.214256
646.219444,96.213252
648.0,96.21225
648.01,96.211495
648.02,96.210999
648.03,96.210611
648.044167,96.210172
648.064722,96.209664
648.095,96.209091
648.139167,96.20846
648.204444,96.207777
648.3,96.207046
648.440278,96.206269
648.646389,96.205441
648.948611,96.20455
649.3925,96.203573
650.043889,96.202478
651.0,96.20121
652.403333,96.199692
654.463333,96.197812
657.486944,96.195407
661.924722,96.192248
668.438889,96.188016
670.219444,96.186913
672.0,96.185828
672.01,96.185447
672.02,96.185196
672.03,96.184999
672.044167,96.184775
672.064722,96.184514
672.095,96.184218
672.139167,96.183888
672.204444,96.183525
672.3,96.183129
672.440278,96.182696
672.646389,96.182215
672.948611,96.181673
673.3925,96.181044
674.043889,96.18029
675.0,96.179357
676.403333,96.178165
678.463333,96.176601
681.486944,96.174505
685.924722,96.171653
692.438889,96.167737
702.0,96.162341
716.033889,96.154906
718.016944,96.153891
720.0,96.152884
720.01,96.152504
720.02,96.152254
720.03,96.152057
720.044167,96.151835
720.064722,96.151576
720.095,96.151283
720.139167,96.150957
720.204444,96.150601
720.3,96.150214
720.440278,96.149794
720.646389,96.149334
720.948611,96.148821
721.3925,96.148234
722.043889,96.147541
723.0,96.146695
724.403333,96.145628
726.463333,96.144238
729.486944,96.142382
733.924722,96.139856
740.438889,96.136372
742.219444,96.13545
744.0,96.134539
744.01,96.136032
744.02,96.137007
744.03,96.137767
744.044167,96.138622
744.064722,96.139604
744.095,96.1407
744.139167,96.14189
744.204444,96.143151
744.3,96.144456
744.440278,96.145781
744.646389,96.147101
744.948611,96.14839
745.3925,96.14962
746.043889,96.150752
747.0,96.151736
748.403333,96.152502
750.463333,96.15295
753.486944,96.152939
757.924722,96.152269
764.438889,96.15066
766.219444,96.15015
768.0,96.14962
768.01,96.148743
768.02,96.148168
768.03,96.147719
768.044167,96.147212
768.064722,96.146627
768.095,96.145969
768.139167,96.145248
768.204444,96.144474
768.3,96.143655
768.440278,96.142798
768.646389,96.141904
768.948611,96.14097
769.3925,96.139985
770.043889,96.13893
771.0,96.137776
772.403333,96.136473
774.463333,96.134948
777.486944,96.133088
781.924722,96.130724
788.438889,96.127603
790.219444,96.12679
792.0,96.125989
792.01,96.126608
792.02,96.127013
792.03,96.127327
792.044167,96.12768
792.064722,96.128084
792.095,96.128534
792.139167,96.129019
792.204444,96.129529
792.3,96.130051
792.440278,96.13057
792.646389,96.131072
792.948611,96.131538
793.3925,96.131947
794.043889,96.132268
795.0,96.132458
796.403333,96.132457
798.463333,96.132178
801.486944,96.131498
805.924722,96.130242
812.438889,96.128163
814.219444,96.12757
816.0,96.12697
816.01,96.125718
816.02,96.124897
816.03,96.124256
816.044167,96.123533
816.064722,96.122699
816.095,96.121763
816.139167,96.120737
816.204444,96.119637
816.3,96.118476
816.440278,96.117265
816.646389,96.116008
816.948611,96.114703
817.3925,96.11334
818.043889,96.111901
819.0,96.110353
820.403333,96.108648
822.463333,96.106713
825.486944,96.104439
829.924722,96.101663
836.438889,96.098151
838.219444,96.097259
840.0,96.096387
840.01,96.09788
840.02,96.098855
840.03,96.099616
840.044167,96.100471
840.064722,96.101453
840.095,96.10255
840.139167,96.103742
840.204444,96.105004
840.3,96.106311
840.440278,96.10764
840.646389,96.108965
840.948611,96.110263
841.3925,96.111504
842.043889,96.112655
843.0,96.113668
844.403333,96.11448
846.463333,96.115
849.486944,96.115106
853.924722,96.114623
860.438889,96.113312
862.219444,96.112886
864.0,96.112442
864.01,96.113063
864.02,96.113469
864.03,96.113785
864.044167,96.114141
864.064722,96.114549
864.095,96.115005
864.139167,96.115499
864.204444,96.116021
864.3,96.116561
864.440278,96.117107
864.646389,96.117647
864.948611,96.11817
865.3925,96.118661
866.043889,96.119098
867.0,96.119455
868.403333,96.119687
870.463333,96.119731
873.486944,96.119489
877.924722,96.118814
884.438889,96.117485
886.219444,96.11708
888.0,96.116662
888.01,96.116036
888.02,96.115625
888.03,96.115303
888.044167,96.114941
888.064722,96.114522
888.095,96.114052
888.139167,96.113536
888.204444,96.112982
888.3,96.112395
888.440278,96.111779
888.646389,96.111136
888.948611,96.110463
889.3925,96.10975
890.043889,96.108982
891.0,96.108137
892.403333,96.107176
894.463333,96.106043
897.486944,96.104649
901.924722,96.10286
908.438889,96.100476
918.0,96.097195
932.033889,96.092586
934.016944,96.091946
936.0,96.091309
936.01,96.090557
936.02,96.090063
936.03,96.089677
936.044167,96.089242
936.064722,96.088739
936.095,96.088173
936.139167,96.087553
936.204444,96.086885
936.3,96.086177
936.440278,96.085434
936.646389,96.084656
936.948611,96.083838
937.3925,96.082969
938.043889,96.08203
939.0,96.080992
940.403333,96.079811
942.463333,96.078422
945.486944,96.076729
949.924722,96.074595
956.438889,96.071821
958.219444,96.071106
960.0,96.070405
960.01,96.070651
960.02,96.07081
960.03,96.070934
960.044167,96.071072
960.064722,96.071229
960.095,96.071403
960.139167,96.071588
960.204444,96.071778
960.3,96.071966
960.440278,96.072144
960.646389,96.072302
960.948611,96.072425
961.3925,96.072496
962.043889,96.072489
963.0,96.072368
964.403333,96.072081
966.463333,96.071556
969.486944,96.070689
973.924722,96.069334
980.438889,96.06729
982.219444,96.066728
984.0,96.066165
984.01,96.066662
984.02,96.066985
984.03,96.067237
984.044167,96.06752
984.064722,96.067844
984.095,96.068205
984.139167,96.068596
984.204444,96.069006
984.3,96.069427
984.440278,96.069848
984.646389,96.070258
984.948611,96.070643
985.3925,96.070988
986.043889,96.071269
987.0,96.071455
988.403333,96.071501
990.463333,96.071342
993.486944,96.070881
997.924722,96.06998
1004.438889,96.068442
1006.219444,96.067997
1008.0,96.067545
1008.01,96.067293
1008.02,96.067127
1008.03,96.066997
1008.044167,96.06685
1008.064722,96.066679
1008.095,96.066486
1008.139167,96.066273
1008.204444,96.066041
1008.3,96.06579
1008.440278,96.065522
1008.646389,96.065232
1008.948611,96.064913
1009.3925,96.064557
1010.043889,96.064145
1011.0,96.063653
1012.403333,96.063042
1014.463333,96.062255
1017.486944,96.061207
1021.924722,96.059771
1028.438889,96.057761
1038.0,96.054905
1052.033889,96.050815
1054.016944,96.050244
1056.0,96.049675
1056.01,96.049922
1056.02,96.050082
1056.03,96.050207
1056.044167,96.050347
1056.064722,96.050506
1056.095,96.050683
1056.139167,96.050872
1056.204444,96.051069
1056.3,96.051267
1056.440278,96.05146
1056.646389,96.051638
1056.948611,96.051792
1057.3925,96.051907
1058.043889,96.051964
1059.0,96.051935
1060.403333,96.051779
1062.463333,96.051437
1065.486944,96.050822
1069.924722,96.049812
1076.438889,96.048225
1078.219444,96.04778
1080.0,96.047332
1080.01,96.047953
1080.02,96.048359
1080.03,96.048676
1080.044167,96.049031
1080.064722,96.04944
1080.095,96.049895
1080.139167,96.050389
1080.204444,96.050912
1080.3,96.051452
1080.440278,96.051998
1080.646389,96.052539
1080.948611,96.053064
1081.3925,96.053557
1082.043889,96.054
1083.0,96.054367
1084.403333,96.054621
1086.463333,96.054705
1089.486944,96.05454
1093.924722,96.054007
1100.438889,96.052933
1102.219444,96.052605
1104.0,96.052266
1104.01,96.052889
1104.02,96.053295
1104.03,96.053612
1104.044167,96.053969
1104.064722,96.054378
1104.095,96.054836
1104.139167,96.055332
1104.204444,96.055859
1104.3,96.056404
1104.440278,96.056959
1104.646389,96.057512
1104.948611,96.058055
1105.3925,96.058573
1106.043889,96.059053
1107.0,96.059473
1108.403333,96.059801
1110.463333,96.059991
1113.486944,96.05997
1117.924722,96.059632
1124.438889,96.058815
1126.219444,96.058551
1128.0,96.058276
1128.01,96.055903
1128.02,96.054348
1128.03,96.053135
1128.044167,96.051768
1128.064722,96.050194
1128.095,96.048429
1128.139167,96.046502
1128.204444,96.044443
1128.3,96.042284
1128.440278,96.040051
1128.646389,96.037763
1128.948611,96.03543
1129.3925,96.033057
1130.043889,96.030638
1131.0,96.028161
1132.403333,96.025602
1134.463333,96.022922
1137.486944,96.020059
1141.924722,96.016915
1148.438889,96.01334
1150.219444,96.012484
1152.0,96.011665
1152.01,96.014656
1152.02,96.016613
1152.03,96.018139
1152.044167,96.019857
1152.064722,96.021832
1152.095,96.024041
1152.139167,96.026447
1152.204444,96.029005
1152.3,96.03167
1152.440278,96.034399
1152.646389,96.037157
1152.948611,96.039908
1153.3925,96.04262
1154.043889,96.045257
1155.0,96.047776
1156.403333,96.050119
1158.463333,96.052214
1161.486944,96.05396
1165.924722,96.055229
1172.438889,96.055847
1174.219444,96.055875
1176.0,96.055861
1176.01,96.055236
1176.02,96.054828
1176.03,96.054509
1176.044167,96.054149
1176.064722,96.053735
1176.095,96.053272
1176.139167,96.052765
1176.204444,96.052225
1176.3,96.051659
1176.440278,96.051074
1176.646389,96.050476
1176.948611,96.049866
1177.3925,96.049247
