time,pressure
0.0,149.079008
0.01,148.670652
0.02,148.578312
0.03,148.53048
0.04,148.49876
0.05,148.475215
0.06,148.456436
0.07,148.440816
0.08,148.427368
0.09,148.415435
0.101111,148.403814
0.113333,148.392215
0.127222,148.379993
0.142778,148.367784
0.16,148.355164
0.179444,148.342038
0.201389,148.328422
0.226111,148.314231
0.253611,148.299413
0.284722,148.283925
0.319444,148.267731
0.358333,148.250801
0.401944,148.233107
0.451111,148.214627
0.506111,148.195332
0.567778,148.175214
0.637222,148.154238
0.715,148.132434
0.802222,148.109689
0.9,148.085996
1.009722,148.060951
1.133056,148.035288
1.271389,148.009362
1.426389,147.980898
1.600556,147.951708
1.795833,147.921982
2.014722,147.890397
2.260833,147.85764
2.536667,147.823488
2.846111,147.787873
3.193333,147.750717
3.583056,147.711943
4.020278,147.671474
4.510556,147.629232
5.061111,147.585148
5.678611,147.539157
6.371389,147.491205
7.148889,147.441252
8.021389,147.38927
9.0,147.335248
10.098056,147.279189
11.330278,147.221115
12.712778,147.161061
14.264167,147.099078
16.004444,147.035229
17.957222,146.969587
20.148611,146.902234
22.606944,146.833259
25.365556,146.762757
28.460556,146.690821
31.933333,146.61755
35.829722,146.543039
40.201389,146.467382
45.106944,146.390669
50.610833,146.312988
56.786111,146.234422
63.715,146.15505
71.489444,146.074941
80.2125,145.994164
90.0,145.912785
100.981667,145.830859
113.303333,145.74844
127.128333,145.665577
142.640278,145.582313
160.045278,145.498688
179.573611,145.41474
201.485,145.330502
226.069722,145.246003
253.654444,145.16127
284.605,145.076329
316.885,144.996893
349.165,144.925043
381.445,144.859455
413.725,144.799125
446.005,144.743272
478.285,144.691277
510.565,144.642641
542.845,144.596957
575.125,144.553887
607.405,144.513147
639.685,144.474499
671.965,144.437738
704.245,144.402688
736.525,144.369197
768.805,144.337133
801.085,144.306378
833.365,144.27683
865.645,144.248398
897.925,144.221001
930.205,144.194565
962.485,144.169026
994.765,144.144325
1027.045,144.120409
1059.325,144.097228
1091.605,144.074741
1097.8025,144.070499
1104.0,144.066281
1104.01,144.10018
1104.02,144.10784
1104.03,144.111805
1104.044167,144.115274
1104.064722,144.118556
1104.095,144.121754
1104.139167,144.125026
1104.204444,144.128607
1104.3,144.1327
1104.440278,144.137425
1104.646389,144.142847
1104.948611,144.149024
1105.3925,144.155997
1106.043889,144.163917
1107.0,144.172845
1108.403333,144.182927
1110.463333,144.194248
1113.486944,144.206762
1117.924722,144.220193
1124.438889,144.233976
1134.0,144.247251
1148.033889,144.258846
1168.633056,144.267243
1198.868333,144.270497
1231.148333,144.268009
1263.428333,144.262219
1295.708333,144.254476
1327.988333,144.2455
1360.268333,144.235716
1392.548333,144.225395
1424.828333,144.214718
1457.108333,144.203809
1489.388333,144.192759
1521.668333,144.181633
1553.948333,144.170478
1586.228333,144.159331
1618.508333,144.14822
1650.788333,144.137164
1683.068333,144.126181
1715.348333,144.115282
1747.628333,144.104477
1779.908333,144.093772
1789.954167,144.090462
1800.0,144.087162
1800.01,144.060422
1800.02,144.054372
1800.03,144.051237
1800.044167,144.048489
1800.064722,144.045883
1800.095,144.043335
1800.139167,144.040716
1800.204444,144.037837
1800.3,144.034526
1800.440278,144.030679
1800.646389,144.026226
1800.948611,144.021094
1801.3925,144.015212
1802.043889,144.008406
1803.0,144.000541
1804.403333,143.991383
1806.463333,143.980684
1809.486944,143.968219
1813.924722,143.953828
1820.438889,143.937401
1822.219444,143.933545
1824.0,143.929895
1824.01,143.935072
1824.02,143.936227
1824.03,143.936816
1824.044167,143.937321
1824.064722,143.937785
1824.095,143.938218
1824.139167,143.938636
1824.204444,143.939062
1824.3,143.93951
1824.440278,143.939971
1824.646389,143.940419
1824.948611,143.940806
1825.3925,143.941064
1826.043889,143.941105
1827.0,143.94079
1828.403333,143.939941
1830.463333,143.938313
1833.486944,143.935585
1837.924722,143.93135
1844.438889,143.925137
1854.0,143.916428
1868.033889,143.904673
1870.016944,143.903102
1872.0,143.901551
1872.01,143.913098
1872.02,143.915703
1872.03,143.917048
1872.044167,143.918223
1872.064722,143.91933
1872.095,143.920404
1872.139167,143.921494
1872.204444,143.922679
1872.3,143.924022
1872.440278,143.925556
1872.646389,143.927292
1872.948611,143.929233
1873.3925,143.931369
1874.043889,143.933718
1875.0,143.93625
1876.403333,143.938944
1878.463333,143.941728
1881.486944,143.944449
1885.924722,143.946826
1892.438889,143.948425
1902.0,143.94865
1916.033889,143.946745
1918.016944,143.946351
1920.0,143.945934
1920.01,144.013467
1920.02,144.028736
1920.03,144.036645
1920.044167,144.043571
1920.064722,144.050132
1920.095,144.056537
1920.139167,144.063105
1920.204444,144.07031
1920.3,144.078573
1920.440278,144.088143
1920.646389,144.099176
1920.948611,144.111822
1921.3925,144.126213
1922.043889,144.142721
1923.0,144.161577
1924.403333,144.183222
1926.463333,144.208049
1929.486944,144.236279
1933.924722,144.267807
1940.438889,144.302133
1950.0,144.338412
1964.033889,144.375526
1984.633056,144.412131
1988.316389,144.417287
1992.0,144.422128
1992.01,144.380495
1992.02,144.37109
1992.03,144.366225
1992.044167,144.36197
1992.064722,144.357948
1992.095,144.354032
1992.139167,144.350033
1992.204444,144.345663
1992.3,144.340677
1992.440278,144.334935
1992.646389,144.328363
1992.948611,144.320904
1993.3925,144.312524
1994.043889,144.303062
1995.0,144.292469
1996.403333,144.280604
1998.463333,144.267395
2001.486944,144.252916
2005.924722,144.237468
2012.438889,144.221574
2014.219444,144.218116
2016.0,144.214939
2016.01,144.123097
2016.02,144.102316
2016.03,144.091543
2016.044167,144.082098
2016.064722,144.073136
2016.095,144.064366
2016.139167,144.055347
2016.204444,144.045421
2016.3,144.033996
2016.440278,144.020707
2016.646389,144.005299
2016.948611,143.987515
2017.3925,143.967093
2018.043889,143.943413
2019.0,143.91601
2020.403333,143.884079
2022.463333,143.846829
2025.486944,143.803645
2029.924722,143.754314
2036.438889,143.699111
2038.219444,143.686377
2040.0,143.674415
2040.01,143.709059
2040.02,143.716843
2040.03,143.720844
2040.044167,143.724313
2040.064722,143.727553
2040.095,143.730652
2040.139167,143.733745
2040.204444,143.737033
2040.3,143.740672
2040.440278,143.744702
2040.646389,143.749076
2040.948611,143.753689
2041.3925,143.75835
2042.043889,143.762889
2043.0,143.766936
2044.403333,143.77007
2046.463333,143.771685
2049.486944,143.77095
2053.924722,143.766821
2060.438889,143.758161
2070.0,143.743969
2084.033889,143.723589
2104.633056,143.696764
2108.316389,143.692357
2112.0,143.688057
2112.01,143.634194
2112.02,143.622005
2112.03,143.615686
2112.044167,143.610145
2112.064722,143.604886
2112.095,143.599738
2112.139167,143.594442
2112.204444,143.588611
2112.3,143.581895
2112.440278,143.574079
2112.646389,143.565008
2112.948611,143.554525
2113.3925,143.542464
2114.043889,143.528442
2115.0,143.512148
2116.403333,143.493049
2118.463333,143.470565
2121.486944,143.44414
2125.924722,143.413323
2132.438889,143.377766
2134.219444,143.369367
2136.0,143.3614
2136.01,143.420013
2136.02,143.433233
2136.03,143.44006
2136.044167,143.446017
2136.064722,143.45163
2136.095,143.457067
2136.139167,143.462587
2136.204444,143.468574
2136.3,143.475355
2136.440278,143.483087
2136.646389,143.491823
2136.948611,143.501573
2137.3925,143.512281
2138.043889,143.524031
2139.0,143.536694
2140.403333,143.55021
2142.463333,143.564356
2145.486944,143.578635
2149.924722,143.592176
2156.438889,143.603755
2158.219444,143.605877
2160.0,143.607679
2160.01,143.610045
2160.02,143.610587
2160.03,143.610872
2160.044167,143.611127
2160.064722,143.611375
2160.095,143.611627
2160.139167,143.611897
2160.204444,143.612209
2160.3,143.612585
2160.440278,143.613046
2160.646389,143.613615
2160.948611,143.614321
2161.3925,143.615197
2162.043889,143.616295
2163.0,143.617663
2164.403333,143.619351
2166.463333,143.621373
2169.486944,143.62366
2173.924722,143.625988
2180.438889,143.627884
2190.0,143.628556
2204.033889,143.626866
2224.633056,143.621389
2254.868333,143.610509
2287.148333,143.59752
2319.428333,143.58416
2323.714167,143.582384
2328.0,143.58061
2328.01,143.579244
2328.02,143.578932
2328.03,143.578768
2328.044167,143.578623
2328.064722,143.578482
2328.095,143.57834
2328.139167,143.578189
2328.204444,143.578016
2328.3,143.57781
2328.440278,143.577558
2328.646389,143.57725
2328.948611,143.576868
2329.3925,143.576393
2330.043889,143.575787
2331.0,143.575007
2332.403333,143.573984
2334.463333,143.572622
2337.486944,143.57079
2341.924722,143.568301
2348.438889,143.564894
2358.0,143.560188
2372.033889,143.553639
2392.633056,143.544468
2422.868333,143.531597
2435.434167,143.5264
2448.0,143.521279
2448.01,143.484442
2448.02,143.476109
2448.03,143.47179
2448.044167,143.468006
2448.064722,143.464417
2448.095,143.460908
2448.139167,143.457302
2448.204444,143.453338
2448.3,143.448782
2448.440278,143.443489
2448.646389,143.437364
2448.948611,143.430309
2449.3925,143.422227
2450.043889,143.412881
2451.0,143.402092
2452.403333,143.389544
2454.463333,143.374905
2457.486944,143.357883
2461.924722,143.338281
2468.438889,143.315989
2478.0,143.290905
2492.033889,143.262823
2512.633056,143.231316
2542.868333,143.195629
2575.148333,143.164878
2607.428333,143.138556
2639.708333,143.11515
2671.988333,143.093833
2704.268333,143.074102
2736.548333,143.055626
2748.274167,143.049178
2760.0,143.042856
2760.01,142.995417
2760.02,142.984686
2760.03,142.979125
2760.044167,142.974251
2760.064722,142.969629
2760.095,142.965109
2760.139167,142.960466
2760.204444,142.95536
2760.3,142.949491
2760.440278,142.942674
2760.646389,142.934783
2760.948611,142.925693
2761.3925,142.915281
2762.043889,142.903237
2763.0,142.889332
2764.403333,142.873155
2766.463333,142.85428
2769.486944,142.832329
2773.924722,142.807043
2780.438889,142.778283
2790.0,142.745925
2804.033889,142.709721
2824.633056,142.66917
2828.316389,142.662908
2832.0,142.656872
2832.01,142.579135
2832.02,142.561544
2832.03,142.552424
2832.044167,142.544428
2832.064722,142.536839
2832.095,142.529411
2832.139167,142.52177
2832.204444,142.513357
2832.3,142.503671
2832.440278,142.492398
2832.646389,142.479318
2832.948611,142.464206
2833.3925,142.446825
2834.043889,142.426627
2835.0,142.403173
2836.403333,142.375703
2838.463333,142.343406
2841.486944,142.305514
2845.924722,142.261438
2852.438889,142.210772
2862.0,142.153188
2876.033889,142.088286
2896.633056,142.015486
2926.868333,141.933977
2927.434167,141.93264
2928.0,141.931309
2928.01,141.889837
2928.02,141.880441
2928.03,141.875562
2928.044167,141.871277
2928.064722,141.867199
2928.095,141.863193
2928.139167,141.859052
2928.204444,141.854468
2928.3,141.84916
2928.440278,141.84294
2928.646389,141.835659
2928.948611,141.827151
2929.3925,141.817226
2930.043889,141.805494
2931.0,141.791584
2932.403333,141.774891
2934.463333,141.754697
2937.486944,141.730197
2941.924722,141.700525
2948.438889,141.664729
2950.219444,141.65602
2952.0,141.647668
2952.01,141.80407
2952.02,141.839401
2952.03,141.857681
2952.044167,141.873667
2952.064722,141.888782
2952.095,141.903496
2952.139167,141.91853
2952.204444,141.934955
2952.3,141.953707
2952.440278,141.975306
2952.646389,142.000034
2952.948611,142.028115
2953.3925,142.059689
2954.043889,142.09538
2955.0,142.135392
2956.403333,142.180303
2958.463333,142.230447
2961.486944,142.285626
2965.924722,142.344772
2972.438889,142.405882
2982.0,142.466238
2996.033889,142.522747
3016.633056,142.572247
3046.868333,142.611714
3059.434167,142.621881
3072.0,142.629717
3072.01,142.73126
3072.02,142.754226
3072.03,142.766125
3072.044167,142.77655
3072.064722,142.786432
3072.095,142.796089
3072.139167,142.806002
3072.204444,142.816892
3072.3,142.829398
3072.440278,142.843907
3072.646389,142.860675
3072.948611,142.879949
3073.3925,142.90197
3074.043889,142.927352
3075.0,142.956524
3076.403333,142.990267
3078.463333,143.02934
3081.486944,143.074316
3085.924722,143.125357
3092.438889,143.182145
3102.0,143.243936
3116.033889,143.309637
3136.633056,143.37779
3166.868333,143.446452
3199.148333,143.497618
3207.574167,143.508533
3216.0,143.518661
3216.01,143.481721
3216.02,143.473376
3216.03,143.46906
3216.044167,143.465285
3216.064722,143.461716
3216.095,143.458243
3216.139167,143.454695
3216.204444,143.450821
3216.3,143.446399
3216.440278,143.441308
3216.646389,143.435484
3216.948611,143.428876
3217.3925,143.421458
3218.043889,143.41309
3219.0,143.403738
3220.403333,143.393292
3222.463333,143.381718
3225.486944,143.369136
3229.924722,143.355916
3236.438889,143.342703
3246.0,143.330357
3260.033889,143.319808
3280.633056,143.311856
3310.868333,143.306873
3343.148333,143.304856
3375.428333,143.30397
3407.708333,143.303346
3439.988333,143.302634
3472.268333,143.30169
3476.134167,143.301558
3480.0,143.301422
3480.01,143.285187
3480.02,143.281515
3480.03,143.279613
3480.044167,143.277947
3480.064722,143.276368
3480.095,143.274825
3480.139167,143.273243
3480.204444,143.271505
3480.3,143.26951
3480.440278,143.267197
3480.646389,143.264527
3480.948611,143.26146
3481.3925,143.257961
3482.043889,143.253934
3483.0,143.249313
3484.403333,143.24398
3486.463333,143.237816
3489.486944,143.230734
3493.924722,143.222703
3500.438889,143.213754
3510.0,143.203951
3524.033889,143.193339
3544.633056,143.181889
3574.868333,143.169423
3587.434167,143.165101
3600.0,143.161115
3600.01,143.192535
3600.02,143.199637
3600.03,143.203315
3600.044167,143.206535
3600.064722,143.209583
3600.095,143.212557
3600.139167,143.215604
3600.204444,143.218943
3600.3,143.222768
3600.440278,143.227192
3600.646389,143.232284
3600.948611,143.238107
3601.3925,143.244714
3602.043889,143.252265
3603.0,143.260851
3604.403333,143.270653
3606.463333,143.281822
3609.486944,143.294421
3613.924722,143.308351
3620.438889,143.32333
3630.0,143.338915
3644.033889,143.354557
3664.633056,143.369631
3694.868333,143.38344
3727.148333,143.392624
3735.574167,143.394432
3744.0,143.396054
3744.01,143.418555
3744.02,143.423644
3744.03,143.426281
3744.044167,143.428592
3744.064722,143.430783
3744.095,143.432925
3744.139167,143.435124
3744.204444,143.437541
3744.3,143.440318
3744.440278,143.443542
3744.646389,143.44727
3744.948611,143.451559
3745.3925,143.456466
3746.043889,143.46213
3747.0,143.468653
3748.403333,143.476217
3750.463333,143.485003
3753.486944,143.495158
3757.924722,143.506745
3764.438889,143.519736
3774.0,143.534022
3788.033889,143.549432
3808.633056,143.56572
3838.868333,143.582497
3871.148333,143.595248
3903.428333,143.60478
3935.708333,143.612143
3967.988333,143.617931
4000.268333,143.62252
4032.548333,143.626161
4064.828333,143.629032
4097.108333,143.631268
4129.388333,143.632968
4161.668333,143.634212
4193.948333,143.635062
4226.228333,143.635571
4258.508333,143.635779
4265.254167,143.635789
4272.0,143.635786
4272.01,143.763805
4272.02,143.792753
4272.03,143.807748
4272.044167,143.820882
4272.064722,143.833328
4272.095,143.845482
4272.139167,143.85795
4272.204444,143.871635
4272.3,143.887336
4272.440278,143.905534
4272.646389,143.926534
4272.948611,143.95063
4273.3925,143.978095
4274.043889,144.009662
4275.0,144.045816
4276.403333,144.087462
4278.463333,144.135455
4281.486944,144.19039
4285.924722,144.252336
4292.438889,144.320784
4302.0,144.394796
4316.033889,144.473244
4336.633056,144.555004
4366.868333,144.639038
4367.434167,144.640353
4368.0,144.64166
4368.01,144.460481
4368.02,144.41953
4368.03,144.398328
4368.044167,144.379769
4368.064722,144.362201
4368.095,144.345068
4368.139167,144.327522
4368.204444,144.308301
4368.3,144.286296
4368.440278,144.26086
4368.646389,144.231608
4368.948611,144.198191
4369.3925,144.160327
4370.043889,144.117119
4371.0,144.068091
4372.403333,144.012258
4374.463333,143.94882
4377.486944,143.877502
4381.924722,143.798947
4388.438889,143.714817
4390.219444,143.695995
4392.0,143.678515
4392.01,143.800769
4392.02,143.828341
4392.03,143.842577
4392.044167,143.854997
4392.064722,143.866697
4392.095,143.878027
4392.139167,143.889525
4392.204444,143.901991
4392.3,143.916101
4392.440278,143.932182
4392.646389,143.950342
4392.948611,143.970595
4393.3925,143.992825
4394.043889,144.017216
4395.0,144.043535
4396.403333,144.071747
4398.463333,144.101581
4401.486944,144.132404
4405.924722,144.163144
4412.438889,144.192526
4422.0,144.219537
4436.033889,144.243894
4438.016944,144.246539
4440.0,144.249048
4440.01,144.086845
4440.02,144.050176
4440.03,144.031187
4440.044167,144.014561
4440.064722,143.998817
4440.095,143.983454
4440.139167,143.967709
4440.204444,143.950449
4440.3,143.930669
4440.440278,143.907782
4440.646389,143.881422
4440.948611,143.851254
4441.3925,143.816984
4442.043889,143.777752
4443.0,143.733047
4444.403333,143.681856
4446.463333,143.623271
4449.486944,143.55676
4453.924722,143.482484
4460.438889,143.401357
4470.0,143.314823
4484.033889,143.224524
4486.016944,143.213992
4488.0,143.20388
4488.01,143.23649
4488.02,143.243825
4488.03,143.247601
4488.044167,143.250882
4488.064722,143.253954
4488.095,143.256904
4488.139167,143.259864
4488.204444,143.26303
4488.3,143.266561
4488.440278,143.270507
4488.646389,143.274846
4488.948611,143.279506
4489.3925,143.284344
4490.043889,143.289249
4491.0,143.293921
4492.403333,143.29801
4494.463333,143.300959
4497.486944,143.301926
4501.924722,143.299737
4508.438889,143.292949
4518.0,143.280077
4532.033889,143.259909
4552.633056,143.231826
4556.316389,143.227115
4560.0,143.222503
4560.01,143.236288
4560.02,143.239396
4560.03,143.240999
4560.044167,143.242398
4560.064722,143.243713
4560.095,143.244986
4560.139167,143.246275
4560.204444,143.247669
4560.3,143.249243
4560.440278,143.251031
4560.646389,143.25304
4560.948611,143.255264
4561.3925,143.257678
4562.043889,143.260282
4563.0,143.263011
4564.403333,143.265798
4566.463333,143.268499
4569.486944,143.270845
4573.924722,143.272389
4580.438889,143.272468
4590.0,143.270216
4604.033889,143.264612
4624.633056,143.254595
4654.868333,143.239222
4687.148333,143.223474
4719.428333,143.208818
4751.708333,143.195249
4783.988333,143.18266
4816.268333,143.170929
4848.548333,143.159939
4880.828333,143.149594
4913.108333,143.139809
4945.388333,143.130513
4956.694167,143.127362
4968.0,143.124261
4968.01,143.181346
4968.02,143.194253
4968.03,143.200937
4968.044167,143.20679
4968.064722,143.212335
4968.095,143.217746
4968.139167,143.223294
4968.204444,143.229379
4968.3,143.236355
4968.440278,143.244432
4968.646389,143.253741
4968.948611,143.264404
4969.3925,143.276532
4970.043889,143.290432
4971.0,143.306296
4972.403333,143.324489
4974.463333,143.345337
4977.486944,143.369025
4981.924722,143.395468
4988.438889,143.424275
4998.0,143.454794
5012.033889,143.486201
5032.633056,143.517558
5062.868333,143.547834
5075.434167,143.557229
5088.0,143.565354
5088.01,143.436839
5088.02,143.407784
5088.03,143.392736
5088.044167,143.379558
5088.064722,143.367076
5088.095,143.354893
5088.139167,143.342402
5088.204444,143.328703
5088.3,143.312997
5088.440278,143.294812
5088.646389,143.273853
5088.948611,143.249842
5089.3925,143.222534
5090.043889,143.191227
5091.0,143.155491
5092.403333,143.114493
5094.463333,143.06748
5097.486944,143.013999
5101.924722,142.954165
5108.438889,142.888714
5118.0,142.818832
5132.033889,142.745855
5152.633056,142.670983
5156.316389,142.660067
5160.0,142.649706
5160.01,142.64905
5160.02,142.64888
5160.03,142.648779
5160.044167,142.648676
5160.064722,142.648559
5160.095,142.648416
5160.139167,142.648234
5160.204444,142.647988
5160.3,142.64765
5160.440278,142.647177
5160.646389,142.646513
5160.948611,142.645575
5161.3925,142.644242
5162.043889,142.64234
5163.0,142.639627
5164.403333,142.635756
5166.463333,142.630256
5169.486944,142.622497
5173.924722,142.611676
5180.438889,142.596824
5190.0,142.576864
5204.033889,142.550732
5206.016944,142.547295
5208.0,142.543915
5208.01,142.564009
5208.02,142.568539
5208.03,142.570878
5208.044167,142.572918
5208.064722,142.574838
5208.095,142.576696
5208.139167,142.57858
5208.204444,142.58062
5208.3,142.582925
5208.440278,142.585547
5208.646389,142.588499
5208.948611,142.591777
5209.3925,142.595348
5210.043889,142.599221
