time,pressure
0.0,668.892351
2.004167,668.851498
4.008333,668.854724
6.0125,668.89459
8.016667,668.872401
10.020833,668.884058
12.025,668.906249
13.3875,668.759893
13.4875,668.622136
13.554167,668.477589
13.7375,668.340172
13.859444,668.266737
13.866667,668.163604
13.879167,667.991404
13.8875,667.732136
13.895833,667.523759
13.904167,667.379646
13.920833,667.241359
13.9625,667.095297
14.1125,666.945244
14.429167,666.800836
16.0375,666.655076
18.041667,666.623987
20.045833,666.602647
22.05,666.580511
24.054167,666.646042
26.058333,666.632805
28.0625,666.571646
30.066667,666.54249
32.070833,666.540599
34.075,666.547423
36.079167,666.525733
37.472778,666.500654
37.483333,666.349478
37.491667,666.211008
37.5,665.881734
37.504167,665.660672
37.508333,665.43241
37.5125,665.153707
37.516667,664.77748
37.520833,664.320192
37.525,663.855963
37.529167,663.45015
37.533333,663.124977
37.5375,662.876911
37.541667,662.692002
37.545833,662.552371
37.554167,662.338741
37.5625,662.132326
37.570833,661.980391
37.583333,661.838235
37.6,661.674083
37.620833,661.519897
37.666667,661.378182
37.708333,661.234498
37.779167,661.083176
37.8875,660.930462
38.020833,660.788428
38.25,660.647942
38.4375,660.505076
38.75,660.359282
39.358333,660.221825
39.460556,660.215788
39.466667,660.053483
39.470833,659.907549
39.475,659.757015
39.483333,659.503994
39.4875,659.353759
39.491667,659.151888
39.495833,658.927175
39.5,658.715597
39.504167,658.502414
39.508333,658.245793
39.5125,657.947162
39.516667,657.661414
39.520833,657.428167
39.525,657.237057
39.529167,657.074373
39.5375,656.864125
39.545833,656.726665
39.558333,656.541972
39.575,656.377854
39.6,656.221604
39.641667,656.075243
39.7,655.925838
39.783333,655.774783
39.879167,655.635813
40.016667,655.498853
40.125,655.36055
40.320833,655.221732
40.55,655.082771
40.829167,654.943397
41.208333,654.803502
41.683333,654.660234
42.25,654.523527
42.691667,654.386447
43.2625,654.241907
43.775,654.101381
44.5525,654.000163
44.554167,653.919495
44.558333,653.738099
44.5625,652.583091
44.566667,652.220767
44.570833,651.800413
44.575,651.35526
44.579167,650.913888
44.583333,650.515198
44.5875,650.187684
44.591667,649.930499
44.595833,649.731363
44.6,649.574381
44.608333,649.316513
44.616667,649.105066
44.629167,648.934495
44.645833,648.769034
44.6625,648.619712
44.6875,648.470965
44.745833,648.304874
44.816667,648.163644
44.870833,648.01965
44.95,647.88069
45.054167,647.74035
45.241667,647.598079
46.120833,647.460676
46.354167,647.320762
46.595833,647.180165
47.1125,647.02788
47.470833,646.879181
47.795833,646.734535
48.208333,646.596258
48.7,646.452659
49.375,646.308277
49.9375,646.16913
50.533333,646.027115
51.304167,645.886266
52.179167,646.026507
52.620833,646.171418
52.9,646.310468
53.579167,646.458541
54.304167,646.606555
55.204167,646.46974
55.441667,646.608275
56.473056,646.61336
56.479167,646.396003
56.483333,646.201635
56.4875,645.973986
56.491667,645.671784
56.495833,645.233544
56.5,644.677128
56.504167,644.106446
56.508333,643.598258
56.5125,643.136124
56.516667,642.679155
56.520833,642.24139
56.525,641.867593
56.529167,641.571846
56.533333,641.33669
56.5375,641.148439
56.541667,641.003554
56.55,640.795756
56.558333,640.629941
56.566667,640.493102
56.575,640.329346
56.591667,640.165111
56.6125,640.025249
56.629167,639.887323
56.654167,639.74727
56.683333,639.598346
56.741667,639.455708
56.7875,639.319139
56.883333,639.175272
57.008333,639.037539
57.325,638.900339
57.779167,638.761608
57.856667,638.76491
57.8625,638.529227
57.866667,638.292541
57.870833,638.045269
57.875,637.814226
57.879167,637.564912
57.883333,637.25403
57.8875,636.901862
57.891667,636.575693
57.895833,636.313839
57.9,636.103721
57.904167,635.919891
57.908333,635.755366
57.916667,635.517849
57.925,635.367333
57.9375,635.22429
57.954167,635.078174
57.9875,634.935833
58.033333,634.792696
58.1125,634.635854
58.183333,634.497173
58.227222,634.47155
58.233333,634.350373
58.241667,634.205141
58.254167,634.019178
58.2625,633.852343
58.270833,633.690848
58.2875,633.534534
58.370833,633.394204
58.458333,633.24889
58.519167,633.178081
58.520833,633.103752
58.525,632.936554
58.529167,632.727227
58.533333,632.512568
58.5375,632.290106
58.541667,632.029755
58.545833,630.533013
58.55,630.079191
58.554167,629.572298
58.558333,629.104503
58.5625,628.719192
58.566667,628.415519
58.570833,628.18425
58.575,628.006377
58.579167,627.855644
58.5875,627.605813
58.595833,627.449672
58.608333,627.265285
58.620833,627.117892
58.6375,626.969527
58.6625,626.82196
58.720833,626.679878
58.783333,626.850365
58.7875,626.905602
58.795833,627.00024
58.808333,627.166192
58.825,627.318572
58.845833,627.461855
58.866667,627.611915
58.883333,627.757485
58.895833,627.910169
58.920833,628.060314
58.9375,628.217778
58.958333,628.367072
58.975,628.505127
58.991667,628.65589
59.008333,628.832991
59.033333,628.99033
59.05,629.145095
59.070833,629.292791
59.0875,629.435392
59.104167,629.59827
59.129167,629.769453
59.145833,629.928549
59.166667,630.081613
59.191667,630.237597
59.220833,630.40529
59.266667,630.559727
59.3125,630.708722
59.35,630.850291
59.404167,630.99099
59.458333,631.134156
59.558333,631.273459
59.623056,631.295738
59.629167,631.110876
59.6375,630.866891
59.645833,630.69183
59.654167,630.518431
59.666667,630.346813
59.691667,630.201562
59.748333,630.171013
59.754167,630.03346
59.7625,629.828581
59.770833,629.668802
59.779167,629.474425
59.7875,629.330575
59.804167,629.184078
59.848889,629.127498
59.854167,628.963254
59.858333,628.749743
59.8625,628.475157
59.866667,628.190589
59.870833,627.934944
59.875,627.736095
59.883333,627.52923
59.895833,627.381079
59.960278,627.31022
60.0125,627.536241
60.054167,627.68099
60.15,627.827891
60.270833,627.975724
60.294167,627.929951
60.3,627.638332
60.304167,627.375428
60.308333,627.099648
60.3125,626.818118
60.316667,626.514404
60.320833,626.195422
60.325,625.895927
60.329167,625.651759
60.333333,625.476743
60.341667,625.275229
60.3625,625.127043
60.402778,625.071222
60.441667,625.293955
60.470833,625.436232
60.5,625.573101
60.6125,625.713592
60.660833,625.757797
60.670833,625.479539
60.679167,625.268467
60.6875,625.100646
60.7,624.936472
61.120833,624.794761
61.181111,624.729283
61.1875,624.54773
61.191667,624.39877
61.195833,624.180266
61.2,623.832565
61.204167,623.374416
61.208333,622.90978
61.2125,622.525489
61.216667,622.245521
61.220833,622.056636
61.229167,621.853017
61.234722,621.831664
61.245833,622.044498
61.254167,622.336109
61.258333,622.521205
61.2625,622.706281
61.266667,622.893642
61.270833,623.084718
61.275,623.271489
61.279167,623.454441
61.283333,623.647063
61.2875,623.847303
61.291667,624.031187
61.295833,624.187562
61.3,624.326586
61.308333,624.561975
61.316667,624.727018
61.329167,624.877035
61.3375,625.043904
61.345833,625.205621
61.358333,625.368493
61.45,625.213086
61.4875,625.063453
61.495833,624.921099
61.533333,624.776995
61.566667,624.635603
61.670833,624.772136
61.706111,624.863598
61.716667,624.612362
61.725,624.413438
61.729167,624.274551
61.733333,624.093228
61.7375,623.900555
61.741667,623.728806
61.745833,623.58009
61.75,623.4377
61.754167,623.291301
61.758333,623.145949
61.766667,622.902635
61.775,622.723805
61.783333,622.555431
61.791667,622.410762
61.804167,622.252018
61.818333,622.193949
61.833333,622.425601
61.841667,622.686181
61.845833,622.858718
61.85,623.020282
61.854167,623.170751
61.858333,623.314738
61.866667,623.561649
61.875,623.82511
61.883333,624.070395
61.891667,624.244034
61.904167,624.435717
61.916667,624.636307
61.9375,624.78759
61.966667,624.940137
62.0125,625.089064
62.0875,625.229107
62.704167,625.092251
62.983333,624.952835
63.2125,624.815507
63.5625,624.673504
63.858333,624.535211
64.220833,624.398151
64.408333,624.252676
64.733333,624.115968
65.070833,623.970881
65.375,623.833757
65.833333,623.685434
66.120833,623.545683
66.558333,623.401332
67.0125,623.264213
67.375,623.126272
67.854167,622.988019
68.354167,622.847528
68.741667,622.70594
69.158333,622.561066
69.695833,622.424756
70.108333,622.286733
70.65,622.148648
71.145833,622.0085
71.670833,621.867255
72.208333,621.7269
72.975,621.587072
73.541667,621.450192
74.279167,621.309152
74.9375,621.170069
75.670833,621.031773
76.333333,620.890276
76.958333,620.74664
77.608333,620.608065
78.4125,620.466598
78.870833,620.328738
79.604167,620.188759
80.4625,620.04915
81.179167,619.898972
82.0625,619.759124
82.875,619.622795
83.754167,619.483178
84.4375,619.342755
85.35,619.20214
86.15,619.062785
87.216667,618.922196
87.9875,618.785179
88.783333,618.649076
89.929167,618.512594
90.666667,618.375597
91.391667,618.236282
92.591667,618.098919
93.4375,617.956459
94.6375,617.817422
95.766667,617.674951
96.783333,617.537792
97.9,617.396551
99.1,617.255997
100.083333,617.118523
101.158333,616.982003
102.229167,616.839619
103.316667,616.699478
104.658333,616.562917
105.733333,616.425271
106.8125,616.284725
108.079167,616.146192
109.433333,616.001076
110.666667,615.859271
111.9,615.721234
113.0625,615.583674
114.7,615.446472
115.9625,615.30609
117.2875,615.164111
118.575,615.023003
120.079167,614.88523
120.820833,614.743271
122.245833,614.603254
123.420833,614.465559
124.6375,614.317167
126.525,614.180671
127.558333,614.038143
129.129167,613.898039
130.7875,613.76185
132.366667,613.623637
133.570833,613.485061
135.175,613.34183
137.179167,613.236523
138.329167,613.097336
138.8875,613.065836
138.893056,613.055382
140.230556,612.908113
142.234722,612.816081
143.384722,612.678199
145.388889,612.578364
146.951389,612.441135
148.288889,612.300789
149.947222,612.161777
151.651389,612.025575
153.293056,611.88709
155.101389,611.744225
156.984722,611.604354
158.988889,611.559282
160.222222,611.413623
162.047222,611.272006
164.051389,611.196821
165.497222,611.054848
167.247222,610.918508
169.155556,610.781921
171.159722,610.735364
172.980556,610.596484
174.780556,610.45325
176.576389,610.312546
178.576389,610.167996
180.355556,610.030062
182.359722,609.967654
183.834722,609.824555
185.838889,609.769848
187.113889,609.630886
189.118056,609.497911
191.122222,609.392855
193.126389,609.324117
194.651389,609.187182
196.470556,609.174294
196.480556,609.396583
196.488889,609.655342
196.493056,609.820497
196.497222,610.017473
196.501389,610.222408
196.505556,610.418441
196.509722,610.609802
196.513889,610.794518
196.518056,610.957494
196.522222,611.098661
196.526389,611.237348
196.530556,611.379434
196.538889,611.616277
196.547222,611.813542
196.555556,611.986098
196.568056,612.151688
196.580556,612.296986
196.601389,612.446621
196.622222,612.592917
196.668056,612.742692
196.738889,612.885384
196.813889,613.044513
196.984722,613.198232
197.263889,613.335294
197.713889,613.47257
198.743056,613.608964
200.093056,613.751247
202.097222,613.739416
204.101389,613.807066
206.105556,613.842043
208.109722,613.825173
210.113889,613.778366
212.118056,613.76009
214.122222,613.768769
216.126389,613.728166
218.130556,613.660008
220.134722,613.598014
222.138889,613.541954
224.143056,613.484894
226.147222,613.461178
228.151389,613.388993
230.155556,613.314898
232.159722,613.259379
234.163889,613.204881
236.168056,613.127253
238.172222,613.067757
240.176389,613.025121
241.938889,612.888797
243.943056,612.888074
245.947222,612.76553
247.951389,612.693782
249.955556,612.595906
251.959722,612.523028
253.963889,612.462019
255.059722,612.600928
255.097222,612.753619
255.099444,612.765262
255.109722,612.907657
255.122222,613.10839
255.130556,613.300119
255.138889,613.536967
255.143056,613.708717
255.147222,613.893544
255.151389,614.080796
255.155556,614.287446
255.159722,614.524862
255.163889,614.784591
255.168056,615.082092
255.172222,615.468634
255.176389,615.954279
255.180556,616.46688
255.184722,616.913729
255.188889,617.231673
255.193056,619.020338
255.197222,620.198917
255.201389,621.114766
255.205556,621.978759
255.209722,623.811169
255.213889,625.140975
255.218056,626.044256
255.222222,626.98153
255.226389,628.981307
255.230556,630.387307
255.234722,631.66589
255.238889,632.719715
255.243056,633.113613
255.247222,633.61925
255.251389,634.129056
255.255556,634.585464
255.259722,634.97569
255.263889,635.298346
255.268056,635.565557
255.272222,635.804879
255.276389,636.036226
255.280556,636.256503
255.284722,636.454769
255.288889,636.633487
255.293056,636.804083
255.297222,636.972355
255.301389,637.137865
255.305556,637.292283
255.313889,637.528909
255.322222,637.738575
255.330556,637.961164
255.338889,638.160542
255.347222,638.315602
255.359722,638.499413
255.368056,638.64941
255.380556,638.817023
255.393056,638.996943
255.405556,639.135964
255.418056,639.288052
255.430556,639.42785
255.447222,639.569386
255.463889,639.721511
255.480556,639.901699
255.501389,640.055372
255.522222,640.207983
255.543056,640.364762
255.576389,640.527044
255.593056,640.674875
255.622222,640.826825
255.643056,640.964583
255.676389,641.118126
255.713889,641.26211
255.743056,641.401704
255.780556,641.553877
255.809722,641.709552
255.859722,641.855346
255.909722,641.995653
255.943056,642.144184
255.997222,642.28751
256.030556,642.425561
256.088889,642.561962
256.155556,642.712174
256.222222,642.874353
256.280556,643.011686
256.359722,643.157431
256.447222,643.306402
256.497222,643.445127
256.568056,643.585267
256.655556,643.73104
256.747222,643.871609
256.851389,644.01076
256.947222,644.156172
257.047222,644.292623
257.113889,644.443283
257.230556,644.596439
257.330556,644.733377
257.434722,644.871918
257.534722,645.008679
257.643056,645.14642
257.776389,645.287466
257.905556,645.424809
258.047222,645.570342
258.188889,645.716846
258.330556,645.859647
258.480556,646.001169
258.638889,646.144066
258.801389,646.28223
258.972222,646.429111
259.155556,646.57702
259.330556,646.716236
259.513889,646.854328
259.793056,647.008818
259.898333,647.033201
259.947222,646.857369
259.976389,646.716318
260.076389,646.567811
260.126389,646.743675
260.134722,646.885133
260.147222,647.024389
260.204167,647.017949
260.213889,646.875639
260.222222,646.731808
260.234722,646.574192
260.243056,646.420714
260.251389,646.268334
260.259722,646.074522
260.268056,645.807748
260.272222,645.655619
260.276389,645.513316
260.284722,645.311008
260.293056,645.164827
260.301389,644.97638
260.305556,644.833527
260.309722,644.615819
260.313889,644.340057
260.318056,644.055335
260.322222,643.782933
260.326389,643.513759
260.330556,643.248005
260.334722,643.007732
260.338889,642.811167
260.343056,642.652372
260.351389,642.399077
260.359722,642.198057
260.368056,642.047687
260.376389,641.910069
260.397222,641.74266
260.418056,641.571351
260.455556,641.433309
260.501389,641.290281
260.551389,641.141507
260.655556,640.979274
260.704167,640.936978
260.709722,640.77641
260.713889,640.612385
260.718056,640.420585
260.722222,640.198732
260.726389,639.939342
260.730556,639.658713
260.734722,639.392316
260.738889,639.161226
260.743056,638.958587
260.747222,638.776215
260.751389,638.617803
260.755556,638.481586
260.763889,638.237891
260.772222,638.032141
260.780556,637.871173
260.793056,637.729036
260.818056,637.562026
260.847222,637.422893
260.938889,637.286508
260.953333,637.23611
260.959722,637.071785
260.968056,636.809505
260.972222,636.643453
260.976389,636.444663
260.980556,636.230905
260.984722,636.027316
260.988889,635.843271
260.993056,635.670005
260.997222,635.497691
261.001389,635.329347
261.005556,635.169433
261.009722,635.014969
261.013889,634.873286
261.022222,634.67276
261.030556,634.50547
261.038889,634.345506
261.051389,634.177992
261.072222,634.041226
261.101389,633.87404
261.151389,633.725681
261.220278,633.767054
261.238889,633.877155
261.381667,633.868908
261.393056,634.017837
261.405556,634.21356
261.413889,634.353151
261.426389,634.507809
261.472222,634.655705
261.572222,634.797045
261.697222,634.936827
261.903611,634.957998
261.909722,634.722642
261.913889,634.549056
261.918056,634.385407
261.922222,634.196344
261.926389,633.928455
261.930556,633.599668
261.934722,633.282345
261.938889,633.012275
261.943056,632.775019
261.947222,632.557552
261.951389,632.362153
261.955556,632.186797
261.959722,632.023109
261.963889,631.869694
261.968056,631.733523
261.976389,631.53881
261.988889,631.340372
262.005556,631.162731
262.018056,631.001566
262.026389,630.692221
262.030556,630.497154
262.034722,630.30617
262.038889,630.091855
262.043056,629.830896
262.047222,629.540726
262.051389,629.257915
262.055556,629.000817
262.059722,628.76805
262.063889,628.556599
262.068056,628.366052
262.072222,628.195529
262.076389,628.042521
262.080556,627.902201
262.088889,627.641067
262.097222,627.447459
262.109722,627.245804
262.122222,627.099112
262.138889,626.932086
262.155556,626.786301
262.180556,626.634561
262.213889,626.485614
262.247222,626.325777
262.322222,626.187744
262.384722,626.032521
262.434722,625.886764
262.547222,625.733295
262.668056,625.586713
262.809722,625.44904
262.922222,625.303505
263.080556,625.157815
263.297222,625.020113
263.488889,624.881517
263.545833,624.756603
263.547222,624.733912
263.555556,624.569361
263.559722,624.384748
263.563889,624.141638
263.568056,623.893049
263.572222,623.660133
263.576389,623.434799
263.580556,623.219315
263.584722,623.01972
263.588889,622.828858
263.593056,622.642895
263.597222,622.474134
263.601389,622.333534
263.609722,622.096754
263.618056,621.893693
263.626389,621.734026
263.638889,621.538747
263.655556,621.38392
263.668056,621.231955
263.701389,621.092291
263.726389,620.955408
263.776389,620.810272
263.822222,620.665067
263.905556,620.518911
263.972222,620.38167
263.974167,620.37077
263.980556,620.215159
263.988889,620.001443
263.993056,619.862175
263.997222,619.657675
264.001389,619.407013
264.005556,619.152683
264.009722,618.912843
264.013889,618.685974
264.018056,618.479157
264.022222,618.304846
264.026389,618.154225
264.030556,617.999945
264.034722,617.835887
264.038889,617.684893
264.047222,617.452457
264.055556,617.268036
264.063889,617.127524
264.076389,616.961853
264.093056,616.804023
264.109722,616.654989
264.143056,616.501657
264.168056,616.342087
264.218056,616.197235
264.272222,616.047404
264.318056,615.907677
264.397222,615.769809
264.459722,615.631633
264.568056,615.485783
264.693056,615.331765
264.897222,615.186421
265.055556,615.046033
265.255556,614.908724
265.551389,614.766875
265.818056,614.627569
266.134722,614.489777
266.438889,614.351292
266.780556,614.21433
267.238889,614.077217
267.693056,613.933653
268.313889,613.793472
268.851389,613.642956
269.580556,613.504481
269.984722,613.365331
270.684722,613.226222
271.513889,613.089145
272.051389,612.951999
273.097222,612.814456
273.186944,612.791713
273.188889,615.206341
273.193056,620.081134
273.197222,623.623019
273.201389,626.301641
273.205556,628.221461
273.209722,629.810802
273.213889,631.216515
273.218056,632.449218
273.222222,632.733025
273.226389,633.89575
273.230556,634.281328
273.234722,634.703158
273.238889,635.122082
273.243056,635.505891
273.247222,635.852789
273.251389,636.169308
273.255556,636.455129
273.259722,636.707527
273.263889,636.929793
273.268056,637.130262
273.272222,637.316613
273.276389,637.491644
273.280556,637.654632
273.284722,637.809316
273.288889,637.956439
273.297222,638.192446
273.305556,638.428473
273.313889,638.679401
273.322222,638.863146
273.330556,639.025191
273.338889,639.171645
273.347222,639.328943
273.355556,639.466279
273.368056,639.663882
273.380556,639.856838
273.393056,640.002907
273.405556,640.151224
273.418056,640.303867
273.434722,640.475157
273.451389,640.665855
273.468056,640.817192
273.488889,640.979374
273.505556,641.12719
273.526389,641.284765
273.547222,641.425323
273.572222,641.582372
273.593056,641.725969
273.630556,641.87788
273.655556,642.031743
273.684722,642.187236
273.718056,642.332841
273.755556,642.475906
273.797222,642.623071
273.826389,642.769788
273.868056,642.906705
273.905556,643.050767
273.959722,643.188678
274.013889,643.341218
274.068056,643.491719
274.138889,643.646063
274.197222,643.793966
274.263889,643.931189
274.343056,644.086307
274.405556,644.226443
274.468056,644.36773
274.551389,644.516393
274.634722,644.659691
