time,pressure
0.0,485.940505
0.25,457.939963
0.5,445.940699
0.75,436.940766
1.0,432.940689
1.25,432.940689
1.5,430.940166
1.75,429.940389
2.0,427.940834
2.5,424.940534
3.0,421.940234
3.25,419.440307
3.5,417.440752
4.0,413.840392
4.5,410.940747
5.0,407.240699
5.5,405.940892
6.0,400.940069
6.5,396.94096
7.0,393.94066
7.5,391.940137
8.0,388.940805
8.5,385.940505
9.0,382.940205
9.5,380.840963
10.5,376.940573
11.5,371.440345
12.5,367.540923
13.5,362.740443
14.5,358.841021
15.5,354.140228
16.5,350.141119
17.5,346.240729
18.5,342.440994
19.5,339.641036
20.5,335.840334
21.5,332.940689
22.5,330.041044
22.533333,329.040299
23.5,326.240341
24.5,324.340474
25.5,322.340919
26.5,320.441052
27.5,318.541184
28.5,317.540439
29.5,316.540662
30.5,316.540662
31.5,316.540662
31.566667,316.540662
32.5,316.540662
33.5,315.640572
34.5,315.640572
35.5,315.640572
36.483333,315.640572
36.733333,315.640572
36.816667,315.640572
37.5,314.640794
38.5,314.640794
39.5,314.640794
40.5,314.640794
41.5,313.641017
42.5,313.641017
43.5,312.740927
44.5,312.740927
45.5,312.740927
46.5,311.74115
46.566667,311.74115
47.5,311.74115
48.5,310.040657
49.5,310.740404
50.066667,304.840459
50.5,304.840459
51.5,304.840459
51.566667,304.840459
52.5,304.840459
53.5,304.840459
54.5,304.840459
54.566667,304.840459
55.5,304.140712
56.5,304.140712
56.566667,304.140712
57.5,303.140935
57.966667,297.940737
58.5,297.940737
59.5,297.940737
60.5,297.940737
61.5,297.140335
62.5,297.140335
63.5,297.140335
64.5,296.140557
64.65,296.140557
65.5,296.140557
65.65,290.840672
66.5,290.840672
67.5,290.840672
68.5,290.840672
69.5,290.840672
69.65,290.840672
70.5,290.041238
71.5,290.041238
72.5,289.040492
72.65,289.040492
73.5,288.110399
74.5,282.641143
75.5,282.14077
76.5,282.14077
77.5,282.14077
77.65,282.14077
78.5,281.140993
79.5,281.140993
80.5,280.141215
80.65,280.141215
81.5,279.14047
82.5,278.24038
83.5,278.24038
84.5,272.840808
85.5,272.840808
86.5,272.840808
87.5,271.940718
88.5,271.940718
89.5,271.040628
90.5,271.040628
91.5,270.04085
92.5,269.14076
92.65,269.14076
93.5,264.240593
94.5,264.240593
95.5,264.240593
96.5,262.680437
97.5,262.730765
97.65,262.730765
98.5,262.730765
99.5,261.740666
100.5,260.740888
101.5,260.740888
102.5,259.840798
102.65,259.840798
103.5,258.841021
104.5,253.340793
105.5,253.340793
106.5,253.340793
107.5,253.340793
108.5,253.340793
109.5,252.440703
110.5,251.440926
111.5,251.440926
112.5,250.441149
113.5,249.541059
114.5,249.541059
115.5,248.541281
116.5,242.641336
117.5,242.641336
118.5,242.641336
119.5,242.641336
120.5,242.140964
121.5,242.140964
122.5,241.141186
123.5,240.141409
124.5,239.241319
125.5,239.241319
126.5,238.240574
127.5,237.240796
128.5,231.640881
129.5,231.640881
130.5,231.640881
131.5,231.640881
132.5,231.141477
133.5,231.141477
134.5,230.241387
135.5,230.241387
136.5,229.240641
137.5,228.240864
138.5,228.240864
139.5,227.340774
140.5,226.340997
141.5,221.851193
142.5,221.840547
143.5,221.840547
144.5,221.840547
145.5,221.041112
146.5,221.041112
147.5,220.141022
148.5,220.141022
149.5,219.240932
150.5,219.240932
151.5,218.241154
152.5,217.241377
153.5,217.241377
154.5,210.940747
155.5,210.940747
156.5,210.940747
157.5,210.940747
158.5,210.940747
159.5,210.340687
160.5,210.340687
161.5,209.340909
162.5,209.340909
163.5,208.341132
164.5,208.341132
165.5,207.441042
166.5,206.441265
167.5,206.441265
168.5,205.441487
169.5,204.440742
170.5,204.440742
171.5,203.440965
172.5,202.540875
173.5,202.540875
174.5,201.640785
175.5,201.640785
176.5,200.641007
177.5,193.240912
178.5,193.240912
179.5,193.240912
180.5,193.240912
181.5,193.240912
182.5,193.240912
183.5,193.240912
184.5,193.240912
185.5,193.240912
186.5,192.441478
187.5,192.441478
188.5,191.440732
189.5,191.440732
190.5,190.540642
191.5,190.540642
192.5,189.64152
193.5,189.64152
194.5,182.841485
195.5,184.041605
196.5,184.041605
197.5,184.041605
198.5,184.041605
199.5,184.041605
200.5,184.041605
201.5,184.041605
202.5,182.941173
203.5,182.941173
204.5,182.941173
205.5,182.941173
206.5,182.941173
207.5,182.941173
208.5,182.941173
209.5,182.941173
210.5,178.041005
211.5,178.041005
212.5,179.141438
213.5,179.141438
214.5,180.141215
215.5,180.141215
216.5,181.140993
217.5,182.14077
217.75,182.14077
218.5,183.141515
219.5,185.041383
219.6,186.140848
219.766667,188.14137
219.933333,197.141302
220.266667,209.841282
220.433333,214.74145
220.6,218.040812
220.766667,219.040589
220.95,221.941202
221.183333,224.940534
221.5,241.141186
221.733333,246.741101
222.0,245.741324
222.783333,242.641336
223.0,248.541281
223.15,254.240883
223.316667,256.740811
223.6,258.540991
223.683333,259.471084
223.783333,262.201357
223.85,264.770969
223.966667,266.850854
224.016667,268.300676
226.733333,269.450469
226.783333,268.441013
227.783333,265.541368
228.283333,264.540623
228.783333,262.541068
229.283333,260.740888
229.783333,259.640456
230.783333,256.240438
231.783333,253.940853
232.783333,252.140673
233.783333,250.141119
234.783333,248.241251
235.783333,247.341161
236.783333,245.540981
237.783333,244.541204
238.783333,243.440771
239.783333,242.540681
240.783333,241.640591
241.783333,240.640814
242.0,240.710498
242.966667,241.780928
243.333333,242.731345
243.35,242.731345
243.783333,242.731345
244.283333,242.731345
244.783333,242.540681
245.783333,242.641336
246.783333,242.641336
247.783333,241.540904
248.783333,240.640814
249.783333,240.640814
250.783333,240.640814
251.783333,240.640814
252.783333,240.640814
253.783333,240.640814
254.783333,240.640814
255.783333,240.640814
256.783333,240.640814
257.783333,240.640814
258.783333,239.641036
259.783333,239.641036
260.783333,239.641036
261.783333,239.641036
261.983333,282.941173
262.15,282.941173
263.15,282.941173
264.15,282.941173
265.15,282.941173
266.15,282.941173
267.15,282.941173
267.233333,282.941173
267.466667,310.940747
268.283333,307.940447
269.033333,303.640339
269.283333,303.640339
269.533333,303.640339
269.783333,303.640339
270.283333,303.340309
270.783333,304.641085
271.283333,310.940747
271.783333,310.241
272.15,316.440974
272.283333,316.440974
272.783333,313.040957
273.283333,316.840692
297.45,318.541184
297.566667,318.541184
297.783333,318.541184
298.316667,302.840905
299.316667,300.540352
300.316667,297.140335
301.316667,295.240467
302.316667,290.341268
303.316667,287.140625
304.316667,286.440878
305.316667,283.541233
306.316667,278.84044
307.316667,272.940495
308.316667,273.440868
309.316667,273.440868
310.316667,272.640465
311.316667,270.740598
312.316667,269.840508
313.316667,268.741043
314.316667,266.841176
315.316667,265.84043
316.316667,264.840653
317.316667,261.740666
318.316667,260.740888
319.316667,259.741111
320.316667,258.040618
321.316667,256.840498
322.316667,255.041286
323.316667,254.840943
324.316667,254.141196
325.316667,251.941299
326.316667,250.741179
327.316667,249.040686
328.316667,247.641191
329.316667,247.140819
330.316667,246.341384
331.316667,245.340638
332.316667,244.340861
333.316667,243.341084
334.316667,242.341306
335.316667,242.341306
336.316667,241.441216
337.316667,241.141186
338.316667,240.141409
339.316667,239.541349
340.316667,239.440694
341.316667,239.440694
342.316667,236.640736
343.316667,234.641181
344.316667,233.741091
345.316667,233.041344
346.316667,232.741314
347.316667,232.741314
348.316667,232.141254
349.316667,231.740569
350.316667,230.841447
351.316667,229.641327
352.316667,229.440984
353.316667,228.840924
354.316667,228.441207
355.316667,227.831468
356.316667,226.941057
357.316667,226.040967
358.316667,226.040967
359.316667,225.041189
360.316667,224.041412
361.316667,224.041412
362.316667,223.141322
363.316667,223.141322
364.316667,222.140577
365.316667,220.141022
366.316667,220.141022
367.316667,219.741304
368.316667,219.240932
369.316667,218.340842
370.316667,218.340842
371.316667,217.641094
372.316667,217.341064
373.316667,216.540662
374.316667,215.441197
375.316667,215.04148
376.316667,214.44142
377.316667,214.14139
378.316667,213.440674
379.316667,212.440897
380.316667,212.540584
381.316667,212.540584
382.316667,212.04118
383.316667,211.540807
384.316667,210.54103
385.316667,210.54103
398.816667,336.740424
399.316667,323.740414
399.816667,320.040367
400.316667,320.040367
400.816667,318.241154
401.316667,316.340319
401.816667,314.340764
402.316667,312.440897
403.316667,308.641162
404.316667,304.941115
405.316667,301.940815
406.316667,301.940815
407.316667,295.941182
408.316667,293.94066
409.316667,291.941105
410.316667,289.940582
411.316667,286.94125
412.316667,284.940728
413.316667,282.941173
414.316667,281.940428
415.316667,280.741275
416.316667,278.84044
417.316667,277.941318
418.316667,276.040483
419.316667,275.040705
420.316667,274.140615
421.316667,273.140838
422.316667,272.340435
423.316667,270.241193
424.316667,268.140983
425.316667,268.24067
426.316667,267.240893
427.316667,265.941086
428.316667,265.341026
429.316667,263.940563
430.316667,262.440413
431.316667,261.440636
432.316667,259.940486
433.316667,259.540768
434.316667,258.540991
435.316667,257.440558
436.316667,256.540468
437.316667,255.641346
438.316667,254.741256
439.316667,253.841166
440.316667,252.841389
441.316667,251.840643
442.316667,250.840866
443.316667,249.940776
444.316667,249.040686
445.316667,248.040909
446.316667,248.940999
447.316667,248.140596
448.316667,247.941221
449.316667,247.140819
450.316667,246.240729
451.316667,246.240729
452.316667,245.141264
453.316667,244.241174
454.316667,244.241174
455.316667,243.241396
456.316667,242.240651
457.316667,242.240651
458.316667,241.340561
459.316667,241.340561
460.316667,240.441439
461.316667,239.541349
462.316667,239.541349
463.316667,238.440916
464.316667,238.440916
465.316667,237.640514
466.316667,237.640514
467.316667,236.541049
468.316667,236.541049
469.316667,235.640959
470.316667,235.140586
471.316667,234.641181
472.316667,234.641181
473.316667,233.741091
474.316667,233.741091
475.316667,233.741091
476.316667,232.741314
477.316667,232.741314
478.233333,232.741314
478.272778,232.741314
478.273056,232.741314
478.75,234.740869
478.9,235.940989
479.233333,237.041421
479.733333,238.140886
480.4,242.041276
480.733333,244.440548
481.233333,246.840789
481.733333,248.841311
482.233333,250.441149
482.566667,309.440597
483.733333,310.440374
484.233333,318.440529
485.233333,300.740695
486.233333,300.840382
487.233333,300.740695
488.233333,299.740917
489.233333,300.840382
490.233333,301.740472
491.233333,302.741217
492.233333,303.740995
493.233333,304.740772
494.233333,306.640639
495.233333,307.390714
496.233333,309.440597
497.233333,310.440374
498.233333,311.44112
499.233333,312.440897
500.233333,313.140644
501.233333,314.340764
502.233333,315.340542
503.233333,316.340319
504.233333,317.240409
505.233333,318.241154
506.233333,319.240932
507.233333,320.141022
508.233333,321.140799
509.233333,322.140577
510.233333,323.140354
511.233333,324.141099
678.233333,326.941057
678.733333,320.940457
679.233333,315.940602
679.733333,310.940747
680.233333,305.940892
680.733333,300.941037
681.233333,294.940437
681.733333,288.940805
682.233333,283.94095
682.733333,276.940573
683.233333,270.94094
684.233333,261.941008
685.233333,253.940853
686.233333,244.940921
687.233333,237.940544
688.233333,230.941134
689.233333,225.941279
690.233333,220.941424
691.233333,214.940824
692.233333,210.940747
693.233333,208.941192
694.233333,205.940892
695.233333,204.941115
696.233333,203.941337
697.233333,203.941337
698.233333,204.941115
699.233333,204.941115
700.233333,204.941115
701.233333,204.941115
702.233333,205.940892
703.233333,205.940892
704.233333,205.940892
705.233333,205.940892
707.233333,205.940892
708.233333,204.941115
709.233333,203.941337
709.983333,202.940592
710.066667,202.940592
710.733333,208.941192
711.233333,208.941192
711.733333,221.941202
712.233333,223.940757
720.233333,267.94064
722.716667,404.940147
723.233333,428.940611
723.733333,434.940244
724.233333,434.940244
724.733333,436.940766
725.233333,412.940302
725.733333,368.940418
726.233333,370.94094
726.733333,347.940253
727.233333,347.940253
727.733333,348.940999
728.233333,348.940999
729.233333,348.940999
732.233333,348.940999
733.233333,348.940999
734.233333,348.940999
735.233333,348.940999
736.233333,348.940999
737.233333,348.940999
738.233333,348.940999
739.233333,348.940999
740.233333,348.940999
741.233333,348.940999
742.233333,348.940999
742.65,348.940999
743.233333,349.940776
744.233333,349.940776
745.233333,349.940776
746.233333,349.940776
747.233333,349.940776
748.233333,350.940553
749.233333,351.940331
750.233333,261.941008
751.733333,262.940786
752.233333,263.940563
1112.233333,337.478885
1112.733333,335.47933
1113.233333,333.478807
1113.733333,331.479252
1114.233333,328.478952
1115.233333,325.478652
1115.733333,319.47902
1116.233333,315.478943
1116.733333,313.479388
1117.233333,310.479088
1117.733333,308.478565
1118.233333,307.478788
1119.233333,303.47871
1119.733333,301.479156
1120.233333,300.479378
1120.733333,297.479078
1121.233333,295.479523
1122.233333,291.479446
1123.233333,289.478923
1124.233333,286.478623
1125.233333,283.479291
1126.233333,283.479291
1127.233333,269.479504
1128.233333,264.478681
1129.233333,255.478749
1130.233333,251.479639
1131.233333,250.478894
1132.233333,246.478817
1133.233333,244.479262
1134.233333,241.478962
1135.233333,239.479407
1136.233333,234.479552
1137.233333,231.479252
1138.233333,228.478952
1139.233333,225.47962
1140.233333,221.479543
1141.233333,218.479243
1142.233333,215.478943
1143.233333,212.47961
1144.233333,209.47931
1145.233333,207.479756
1146.233333,204.479456
1147.233333,202.478933
1148.233333,200.479378
1149.233333,197.479078
1150.233333,195.479523
1151.233333,192.479223
1152.233333,190.479669
1153.233333,187.479368
1154.233333,184.479068
1155.233333,182.479514
1156.233333,180.478991
1157.233333,178.479436
1158.233333,177.479659
1159.233333,175.479136
1160.233333,173.479581
1161.233333,171.479059
1162.233333,170.479281
1163.233333,168.479727
1164.233333,167.478981
1165.233333,166.479204
1166.233333,165.479427
1167.233333,163.479872
1168.233333,162.479127
1169.233333,161.479349
1170.233333,159.479794
1171.233333,158.479049
1172.233333,157.479272
1173.233333,156.479494
1174.233333,155.479717
1175.233333,154.47994
1176.233333,153.479194
1177.233333,152.479417
1178.233333,152.479417
1179.233333,151.479639
1180.233333,150.479862
1181.233333,149.479117
1182.233333,148.479339
1183.233333,147.479562
1184.233333,146.479785
1185.233333,145.479039
1186.233333,144.479262
1187.233333,143.479485
1188.233333,142.479707
1189.233333,142.479707
1190.233333,141.47993
1191.233333,140.479185
1192.233333,139.479407
1193.233333,138.47963
1194.233333,137.479852
1195.233333,133.479775
1196.233333,130.479475
1197.233333,129.479698
1198.233333,128.47992
1199.233333,127.479175
1200.233333,126.479398
1200.566667,126.479398
1200.983333,126.479398
1201.233333,130.479475
1202.233333,143.479485
1202.65,144.479262
1203.233333,150.479862
1203.983333,165.479427
1205.233333,165.479427
1206.233333,157.479272
1207.233333,158.479049
1208.233333,158.479049
1209.233333,154.47994
1210.233333,157.479272
1210.983333,145.479039
1212.233333,164.479649
1213.233333,165.479427
1214.233333,162.479127
1215.233333,163.479872
1216.233333,159.479794
1217.233333,155.479717
1218.233333,150.479862
1219.233333,147.479562
1220.233333,143.479485
1221.233333,139.479407
1222.233333,138.47963
1223.233333,132.479998
1224.233333,128.47992
1225.233333,126.479398
1226.233333,123.479098
1227.233333,121.479543
1228.233333,119.479988
1229.233333,118.479243
1230.233333,117.479465
1231.233333,116.479688
1232.233333,116.479688
1233.233333,116.479688
1234.233333,115.47991
1235.233333,115.47991
1236.233333,115.47991
1237.233333,115.47991
1238.233333,115.47991
1239.233333,115.47991
1240.233333,115.47991
1241.233333,115.47991
1242.233333,115.47991
1243.233333,115.47991
1244.233333,115.47991
1245.233333,114.479165
1246.233333,114.479165
1247.233333,114.479165
1248.233333,114.479165
1249.233333,113.479388
1250.233333,113.479388
1251.233333,113.479388
1252.233333,114.479165
1253.233333,114.479165
1254.233333,114.479165
1255.233333,113.479388
1256.233333,113.479388
1257.0,113.479388
1257.233333,114.479165
1257.65,119.479988
1257.983333,130.479475
1258.233333,135.47933
1258.316667,138.47963
1258.733333,146.479785
1258.9,149.479117
1259.233333,152.479417
1260.066667,149.479117
1260.233333,148.479339
1260.316667,148.479339
1260.483333,147.479562
1261.233333,144.479262
1262.233333,140.479185
1263.233333,136.479107
1264.233333,132.479998
1265.233333,130.479475
1266.233333,127.479175
1267.233333,125.47962
1268.233333,123.479098
1269.233333,121.479543
1270.233333,119.479988
1271.233333,118.479243
1272.233333,117.479465
1273.233333,116.479688
1274.233333,115.47991
1275.233333,115.47991
1276.233333,114.479165
1277.233333,114.479165
1278.233333,113.479388
1279.233333,112.47961
1280.233333,112.47961
1281.233333,112.47961
1291.066667,111.479833
1291.233333,111.479833
1292.066667,111.479833
1292.233333,110.480056
1293.233333,109.47931
1294.233333,108.479533
1295.233333,108.479533
1296.233333,108.479533
1297.233333,107.479756
1298.233333,107.479756
1299.233333,107.479756
1300.233333,106.479978
1301.233333,106.479978
1302.233333,105.479233
1303.233333,105.479233
1304.233333,105.479233
1305.233333,105.479233
1306.233333,105.479233
1307.233333,105.479233
1308.233333,105.479233
1309.233333,105.479233
1310.233333,105.479233
1311.233333,105.479233
1312.233333,105.479233
1313.233333,105.479233
1313.316667,105.479233
1314.233333,105.479233
1315.233333,105.479233
1316.233333,105.479233
1317.233333,105.479233
1318.233333,106.479978
1319.233333,106.479978
1320.233333,106.479978
1321.233333,106.479978
1322.233333,106.479978
1323.233333,106.479978
1324.233333,106.479978
1325.233333,106.479978
1326.233333,106.479978
1327.233333,106.479978
1328.233333,107.479756
1329.233333,107.479756
1330.233333,107.479756
1331.233333,106.479978
1332.233333,106.479978
1333.233333,106.479978
1334.233333,106.479978
1335.233333,106.479978
1336.233333,106.479978
1337.233333,106.479978
1338.233333,106.479978
1339.233333,106.479978
1340.233333,106.479978
1341.233333,106.479978
1342.233333,106.479978
1343.233333,106.479978
1344.233333,106.479978
1345.233333,106.479978
1346.233333,106.479978
1347.233333,106.479978
1348.233333,106.479978
1349.233333,106.479978
1350.233333,106.479978
1351.233333,106.479978
1352.233333,106.479978
1353.233333,106.479978
1354.233333,106.479978
1355.233333,106.479978
1356.233333,106.479978
1357.233333,105.479233
1358.233333,105.479233
1359.233333,105.479233
1360.233333,105.479233
1361.233333,105.479233
1362.233333,105.479233
1363.233333,105.479233
1364.233333,105.479233
1365.233333,105.479233
1366.233333,105.479233
1367.233333,105.479233
1368.233333,105.479233
1369.233333,105.479233
1370.233333,105.479233
1371.233333,105.479233
1372.233333,105.479233
1373.233333,105.479233
1374.233333,105.479233
1375.233333,104.479456
1376.233333,104.479456
1377.233333,104.479456
1378.233333,104.479456
1379.233333,105.479233
1380.233333,104.479456
1381.233333,105.479233
1382.233333,105.479233
1383.233333,105.479233
1384.233333,104.479456
1385.233333,104.479456
1386.233333,104.479456
1387.233333,103.479678
1388.233333,103.479678
1389.233333,103.479678
1390.233333,103.479678
1391.233333,103.479678
1391.9,103.479678
1392.233333,103.479678
1393.233333,103.479678
1394.233333,103.479678
1395.233333,103.479678
1396.233333,103.479678
1397.233333,103.479678
1398.233333,103.479678
1398.733333,103.479678
1399.233333,103.479678
1400.233333,103.479678
1401.233333,103.479678
1402.233333,102.479901
1403.233333,102.479901
1404.233333,102.479901
1405.233333,102.479901
1406.233333,102.479901
1407.233333,102.479901
1408.233333,102.479901
1409.233333,101.479156
1410.233333,101.479156
1411.233333,101.479156
1412.233333,101.479156
1413.233333,101.479156
1414.233333,101.479156
1415.233333,101.479156
1416.233333,101.479156
1417.233333,101.479156
1418.233333,101.479156
1419.233333,101.479156
1420.233333,101.479156
1421.233333,101.479156
1422.233333,101.479156
1423.233333,101.479156
1424.233333,101.479156
