time,pressure
0.0,85.718685
0.275556,81.450517
0.522778,78.053403
0.830833,72.84643
1.036111,70.552653
1.288056,68.355659
1.520556,67.397498
1.850278,67.397498
1.879167,66.1877
2.123611,65.34568
2.381389,64.697228
2.7325,64.097168
2.993611,63.690676
3.252222,63.342254
3.503611,63.061581
3.841944,62.693802
4.093611,62.432486
4.338056,62.238918
4.594722,62.04535
4.926111,61.725964
5.153333,61.571109
5.4025,61.484004
5.880278,61.484004
6.004444,61.164617
6.139167,61.164617
6.211111,61.077512
6.462222,60.922657
6.801667,60.738768
7.025556,60.603271
7.268889,60.477452
7.518333,60.351633
7.839722,60.274205
8.101389,60.196778
8.320556,60.099994
8.529167,60.012889
8.861944,59.867713
9.102222,59.761251
9.329167,59.703181
9.541389,59.674145
9.883889,59.490256
10.132222,59.354759
10.173333,59.354759
10.3575,59.248296
10.439722,59.248296
10.605833,59.403151
10.963333,59.248296
11.205833,59.141834
11.419167,59.074085
11.741944,59.074085
11.76,58.909553
12.020833,58.861161
12.270278,58.764377
12.520833,58.657915
12.847778,58.551453
13.076944,58.474025
13.320833,58.435312
13.863611,58.309493
14.126944,58.232066
14.3875,58.164317
14.726389,58.057855
14.954722,57.970749
15.199167,57.922357
15.4325,57.84493
15.762778,57.78686
15.99,57.738468
16.221944,57.651363
16.463333,57.612649
16.7925,57.5449
17.025556,57.457795
17.27,57.390046
17.518611,57.302941
17.853333,57.206157
18.108056,57.12873
18.349167,57.060981
18.591389,57.031946
18.922222,56.954519
19.163056,56.867413
19.413611,56.8287
19.748889,56.741594
19.993056,56.673845
20.206944,56.606097
20.4425,56.557705
20.764444,56.538348
21.008333,56.470599
21.269444,56.393172
21.535278,56.315745
21.892222,56.209283
22.133889,56.160891
22.361667,56.102821
22.6025,56.064107
22.950556,56.006037
23.191111,55.957645
23.424444,55.918931
23.780556,55.851182
24.042778,55.793112
24.276111,55.773755
24.531111,55.706007
24.852222,55.667293
25.095556,55.599544
25.346944,55.541474
25.593056,55.454369
25.9625,55.376942
26.207222,55.347906
26.465556,55.318871
26.856667,55.512439
27.098333,55.522117
27.329167,55.502761
27.551111,55.454369
27.878611,55.396298
28.113056,55.367263
28.329167,55.338228
28.556667,55.32855
28.881111,55.270479
29.126111,55.222087
29.365278,55.173695
29.969444,55.251122
30.135,55.231766
30.376111,55.231766
30.571389,55.222087
30.921111,55.183374
31.165556,55.173695
31.398611,55.164017
31.730556,55.134982
31.980833,55.096268
32.222778,55.08659
32.464167,55.047876
32.774444,55.067233
33.0025,54.960771
33.268056,54.922057
33.548333,54.854309
33.909167,54.738168
34.175278,54.680098
34.411111,54.660741
34.759722,54.602671
35.005556,54.563957
35.243333,54.5446
35.378889,54.5446
35.487222,54.554279
35.839444,54.515565
36.119722,54.457495
36.351667,54.418781
36.580556,54.399424
36.945833,54.360711
37.207222,54.312319
37.461944,54.273605
37.783056,54.215535
38.018889,54.147786
38.255,54.109073
38.501667,54.060681
38.835556,53.973575
39.073056,53.992932
39.3275,54.002611
39.379722,54.002611
39.55,54.051002
39.698611,54.051002
39.895,53.973575
40.126667,53.896148
40.387222,53.847756
40.764722,53.789686
41.014167,53.760651
41.249722,53.818721
41.499167,53.789686
41.860833,53.780008
42.077222,53.741294
42.333611,53.712259
42.591944,53.750972
42.931944,53.683224
43.1725,53.663867
43.413333,53.702581
43.723333,53.702581
43.746389,53.654189
43.974167,53.654189
43.990556,53.625153
44.2325,53.702581
44.470833,53.683224
44.836111,53.634832
45.071944,53.605797
45.312222,53.625153
45.557222,53.547726
45.886944,53.499334
46.118889,53.509013
46.358889,53.499334
46.599444,53.470299
46.943611,53.538048
47.173611,53.509013
47.414444,53.441264
47.753056,53.392872
47.982778,53.373515
48.025,53.373515
48.208889,53.334802
48.280833,53.334802
48.437222,53.315445
48.757778,53.28641
49.001944,53.28641
49.228889,53.305767
49.466667,53.28641
49.801667,53.267053
50.059167,53.267053
50.283333,53.199304
50.531667,53.179948
50.85,53.141234
51.082222,53.131556
51.313333,53.092842
51.547222,53.150912
51.863056,53.112199
52.089444,53.083164
52.318333,53.083164
52.341389,53.073485
52.578889,53.015415
52.717778,53.015415
52.920556,52.918631
52.9475,52.899274
52.984167,52.870239
53.203333,52.870239
53.276389,52.870239
53.456111,52.783134
53.991944,52.618601
54.289167,52.599244
54.5425,52.550852
54.897778,52.434712
58.739722,71.423707
58.988333,64.823047
59.201944,62.790586
59.350278,62.790586
59.453889,61.561431
59.777222,60.293562
59.999167,59.58704
60.236111,58.957945
60.463333,58.454669
60.788056,57.893322
61.026667,57.477152
61.267778,57.138408
61.521111,56.848056
61.848056,56.373815
62.111389,56.093142
62.338611,55.870539
62.577778,55.68665
62.922778,55.531796
63.186389,55.551152
63.366389,55.551152
63.434444,55.483404
63.767222,55.338228
64.011944,55.338228
64.25,55.260801
64.493333,55.212409
64.852222,55.057555
65.089722,54.941414
65.318333,54.883344
65.563056,54.767203
65.905556,54.680098
66.153889,54.573635
66.391389,54.457495
66.709444,54.370389
66.953611,54.331676
67.206944,54.302641
67.435556,54.283284
67.760278,54.157465
67.991667,54.080038
68.228611,53.973575
68.473889,53.925183
68.844444,53.857435
69.099722,53.809043
69.332222,53.750972
69.564167,53.731616
69.896667,53.702581
70.155556,53.654189
70.391667,53.596118
70.748333,53.52837
71.003056,53.576762
71.269722,53.58644
71.538889,53.547726
71.89,53.518691
72.127222,53.538048
72.363611,53.509013
72.7225,53.412229
72.982778,53.392872
73.213611,53.34448
73.513611,53.363837
73.882222,53.441264
74.137778,53.373515
74.397778,53.22834
74.713611,53.131556
74.971667,53.063807
75.211389,53.025093
75.451111,52.976701
75.808889,52.947666
76.065,52.908953
76.318889,52.908953
76.526389,52.937988
77.077778,53.034772
77.3125,53.063807
77.972778,53.04445
78.113056,53.04445
78.371667,52.937988
78.702778,52.841204
78.941389,52.831526
79.188611,52.812169
79.414444,52.773455
79.744722,52.821847
79.983333,52.908953
80.253333,52.889596
80.4925,52.841204
80.826667,52.792812
81.055833,52.754099
81.273056,52.666993
81.513889,52.676671
81.866667,52.541174
82.127222,52.473425
82.378889,52.473425
82.731389,52.38632
82.978889,52.347606
83.204722,52.337928
83.449444,52.260501
83.793889,52.260501
84.016111,52.318571
84.246667,52.221787
84.471944,52.212109
84.801111,52.163717
85.067778,52.231466
85.293056,52.202431
85.523889,52.260501
85.854722,52.212109
86.085,52.183074
86.313611,52.163717
86.529722,52.115325
86.848333,52.037898
87.094444,51.950792
87.324722,52.008863
87.548333,51.989506
87.892778,51.931436
88.125833,51.931436
88.2275,51.931436
88.358889,51.892722
88.605556,51.854009
88.936111,51.776581
89.184722,51.747546
89.422222,51.757225
89.767222,51.689476
90.008889,51.699154
90.266667,51.824973
90.495556,51.72819
90.841667,51.679798
91.087222,51.641084
91.328611,51.621727
91.576389,51.592692
91.919167,51.534622
92.156389,51.476551
92.245556,51.476551
92.383333,51.418481
92.723611,51.370089
92.990556,51.321697
93.096111,51.292662
93.258611,51.282984
93.488056,51.350732
93.818889,51.273305
94.044444,51.224913
94.280833,51.205557
94.533611,51.1862
94.888611,51.157165
95.118889,51.166843
95.359722,51.176521
95.717222,51.224913
95.943056,51.215235
96.182778,51.234592
96.375,51.205557
96.595833,51.215235
96.921944,51.176521
97.175,51.176521
97.423889,51.234592
97.755,51.147486
98.009444,51.215235
98.260556,51.234592
98.499167,51.234592
98.843333,51.224913
99.082778,51.234592
99.316667,51.215235
99.561944,51.1862
99.907778,51.157165
100.096389,51.118451
100.313333,51.118451
100.558056,51.099094
100.907222,51.108773
101.153611,51.060381
101.394722,51.215235
102.000833,51.24427
102.190833,51.195878
102.45,51.215235
102.793056,51.215235
103.038889,51.302341
103.290278,51.466873
103.522778,51.457195
103.837778,51.912079
104.093889,51.892722
104.317778,51.78626
104.551111,51.78626
104.9125,51.612049
105.143889,51.592692
105.375556,51.563657
105.585278,51.573335
105.920833,51.573335
106.16,51.515265
106.400833,51.5443
106.765,51.660441
107.016667,51.795938
107.244167,51.84433
107.474444,51.84433
107.820278,51.834652
108.068333,51.766903
108.322778,51.757225
108.558889,51.766903
108.911111,51.912079
109.142778,51.950792
109.378889,51.902401
109.715,51.892722
109.963611,51.902401
110.115833,51.902401
110.195833,51.989506
110.4375,52.08629
110.762222,52.279858
110.978611,52.44439
111.206111,52.579888
111.446111,52.821847
111.753889,52.802491
111.996944,52.754099
112.245278,52.579888
112.770556,52.260501
113.010278,52.163717
113.251389,52.14436
113.495556,52.154039
113.828333,52.14436
114.081944,52.173395
114.124167,52.173395
114.318056,52.192752
114.556111,52.221787
114.899444,52.134682
115.185556,52.250822
115.416944,52.32825
115.755278,52.395998
115.995,52.192752
116.242778,52.047576
116.4975,51.912079
116.865,51.795938
117.121111,51.679798
117.336111,51.621727
117.571667,51.592692
117.917222,51.689476
118.170278,51.708833
118.423333,51.641084
118.781389,51.621727
119.006389,51.631406
119.255278,51.670119
119.503056,51.670119
119.860833,51.78626
120.111944,51.757225
120.366111,51.941114
120.701389,51.950792
120.961944,52.037898
121.210556,52.066933
121.479444,52.08629
121.82,52.134682
122.061667,51.970149
122.3225,51.824973
122.566944,51.72819
122.933333,51.72819
123.195278,51.708833
123.4375,51.679798
123.766389,51.631406
123.999444,51.631406
124.238889,51.660441
124.476667,51.757225
124.793889,51.941114
125.04,52.037898
125.263056,52.08629
125.520556,52.095968
126.056667,52.134682
126.382222,52.057255
126.583889,52.037898
126.924444,52.037898
127.391667,52.018541
127.713611,52.125003
127.982778,51.883044
128.244444,51.950792
128.468056,51.941114
128.816389,52.163717
129.049444,52.32825
129.279722,52.357285
129.536111,52.560531
129.9225,62.074385
130.410556,66.410303
130.7975,67.920131
130.968333,65.336002
131.177778,62.171169
131.446389,60.158065
131.78,58.696628
132.0125,58.135282
132.28,57.699754
132.505833,57.48683
132.872222,57.090016
133.132778,56.88677
133.364167,56.770629
133.710556,56.58674
133.973056,56.402851
134.213056,56.402851
134.458333,56.499634
134.746389,56.199604
135.025278,55.996358
135.308056,55.860861
135.564167,55.735042
135.919722,55.62858
136.168056,55.580188
136.444722,55.483404
136.835,55.396298
137.104722,55.347906
137.335,55.299514
137.586944,55.280158
137.724167,55.280158
137.955833,55.270479
138.209167,55.241444
138.461667,55.202731
138.804444,55.183374
139.325556,55.183374
139.554167,55.202731
139.882222,55.222087
140.145278,55.222087
140.401667,55.202731
140.77,55.173695
141.024444,55.173695
141.280278,55.154339
141.735278,55.154339
141.788333,55.164017
142.074722,55.067233
142.322778,55.02852
142.543889,55.009163
142.896389,54.980128
143.157778,54.970449
143.386944,54.970449
143.723611,54.980128
143.971944,54.980128
144.205833,54.980128
144.460278,55.009163
144.783056,54.999484
145.021111,54.980128
145.261944,54.980128
145.475556,54.970449
145.823333,54.941414
146.066667,54.941414
146.318889,54.941414
146.563333,54.922057
146.866111,54.476852
147.109722,54.292962
147.339167,54.147786
147.585278,54.147786
147.606389,54.070359
148.19,53.925183
148.429167,53.88647
148.761944,53.838078
149.033611,53.799364
149.261111,53.760651
149.491111,53.770329
149.984444,53.760651
150.305,53.789686
150.564167,53.809043
150.904167,53.847756
151.158056,53.847756
151.398333,53.88647
151.586944,53.88647
151.797778,53.789686
152.066944,53.712259
152.275,53.741294
152.532222,53.596118
152.872222,53.518691
153.126389,53.450942
153.339167,53.450942
153.578056,53.431586
153.902222,53.470299
154.144444,53.450942
154.377222,53.470299
154.7075,53.441264
154.964444,53.412229
155.2125,53.392872
155.463889,53.334802
155.775833,53.305767
156.053889,53.402551
156.281944,53.305767
156.540556,53.28641
157.147222,53.22834
157.438611,53.238018
157.797222,53.257375
158.033611,53.383194
158.291111,53.450942
158.512222,53.460621
158.851944,53.402551
159.103889,53.373515
159.347778,53.334802
159.7275,53.257375
159.981111,53.22834
160.249722,53.179948
160.483889,53.189626
160.814444,53.189626
161.053611,53.170269
161.294722,53.141234
161.548333,53.112199
161.911944,53.102521
162.158056,53.083164
162.405,53.083164
162.752222,53.073485
162.988889,53.073485
163.234722,53.073485
163.482778,53.063807
163.8075,53.054129
164.085556,53.054129
164.341667,53.073485
164.576944,53.083164
164.914167,53.121877
165.164722,53.131556
165.413611,53.141234
165.770556,53.170269
166.015,53.160591
166.251111,53.170269
166.5,53.121877
166.834167,53.131556
167.080833,53.170269
167.323056,53.160591
167.549722,53.179948
167.895833,53.092842
168.151111,53.083164
168.4025,53.063807
168.730556,53.063807
168.988611,53.083164
169.233056,53.073485
169.4825,53.083164
169.5275,53.083164
169.828889,53.121877
170.062778,53.121877
170.301111,53.131556
170.5575,53.131556
170.902778,53.131556
171.149722,53.112199
171.397778,53.102521
171.713889,53.083164
171.964444,53.063807
172.226111,53.04445
172.468889,53.034772
172.82,53.025093
173.068611,53.005737
173.356944,53.025093
173.536111,53.025093
173.977778,52.976701
174.139444,52.976701
174.390278,52.967023
174.996667,53.005737
175.251944,53.015415
175.486111,52.996058
175.844167,52.996058
176.085556,52.996058
176.346944,52.967023
176.596944,52.947666
176.960278,52.918631
177.2375,52.908953
177.4525,52.899274
177.811389,52.889596
178.064167,52.92831
178.343056,52.996058
178.584444,53.04445
178.950833,53.015415
179.225,53.034772
179.468056,53.054129
179.840278,53.015415
180.1025,53.034772
180.333611,53.015415
180.591389,53.015415
180.944444,52.967023
181.217222,52.967023
181.456667,52.967023
181.79,52.957345
182.054444,52.947666
182.309167,52.947666
182.573056,52.92831
182.924167,52.996058
183.156111,53.005737
183.438889,53.092842
183.794167,53.121877
184.075833,53.112199
184.340278,53.092842
184.585278,53.092842
184.918056,53.199304
185.147222,53.208983
185.402778,53.218661
185.719444,53.238018
185.986944,53.208983
186.246667,53.218661
186.499167,53.22834
186.836389,53.22834
187.090278,53.218661
187.332778,53.199304
187.733333,53.189626
188.010556,53.179948
188.2525,53.160591
188.460278,53.150912
188.790556,53.04445
189.048056,53.005737
189.293056,52.937988
189.529167,52.92831
189.886389,52.879918
190.148056,52.879918
190.401667,52.879918
190.766111,52.860561
191.023611,52.841204
191.281389,52.831526
191.540278,52.870239
191.708056,52.870239
191.897222,52.850882
192.123611,52.860561
192.373611,52.860561
192.713056,52.850882
192.971667,52.850882
193.221667,52.841204
193.48,52.841204
193.835556,52.889596
194.108333,52.812169
194.343611,52.831526
194.583889,52.763777
194.911667,52.773455
195.149444,52.608923
195.396111,52.337928
195.725278,52.337928
195.738333,52.125003
195.983056,52.125003
196.000556,52.037898
196.260556,52.066933
196.503056,52.047576
196.841111,52.037898
197.095556,51.999184
197.353611,51.950792
197.995556,51.883044
198.173611,51.757225
198.3975,51.641084
198.769722,51.737868
199.021111,51.641084
199.2625,51.641084
199.505833,51.583014
199.849167,51.563657
200.016111,51.563657
200.09,51.583014
200.268611,51.583014
200.349444,51.534622
200.610278,51.476551
200.947778,51.437838
201.184722,51.389446
201.416667,51.379768
201.754167,51.350732
202.006389,51.350732
202.018889,51.302341
202.268056,51.302341
202.541944,51.321697
202.857222,51.321697
202.8875,51.379768
203.125,51.331376
203.350833,51.360411
203.711944,51.234592
203.97,51.157165
204.232222,51.195878
204.476944,51.137808
205.058611,51.060381
205.301389,51.031346
205.564167,51.002311
205.915556,50.973275
206.158333,50.94424
206.409722,50.857135
206.750833,50.8281
206.859167,50.8281
206.989444,50.808743
207.112778,50.808743
207.246944,50.760351
207.4875,50.740994
207.828611,50.721637
208.088056,50.692602
208.334444,50.663567
208.5725,50.653889
208.895278,50.615175
209.113889,50.595818
209.363333,50.595818
209.713333,50.595818
209.9675,50.547426
210.201111,50.547426
210.450556,50.537748
210.787222,50.52807
211.050556,50.499034
211.121944,50.499034
211.279167,50.499034
211.525278,50.489356
211.852778,50.460321
212.113056,50.450642
212.371667,50.450642
212.706944,50.440964
212.964167,50.450642
213.192778,50.431286
213.440556,50.431286
213.777778,50.382894
214.008889,50.382894
214.258056,50.382894
214.507778,50.392572
214.851111,50.392572
215.103333,50.34418
215.343889,50.324823
215.598333,50.315145
215.934167,50.295788
216.178333,50.295788
216.421944,50.28611
216.770833,50.28611
217.021944,50.28611
217.2875,50.276431
217.506111,50.28611
217.83,50.257075
218.072222,50.237718
218.323056,50.218361
218.563333,50.218361
218.915,50.22804
219.141111,50.208683
219.396944,50.189326
219.735,50.179648
220.007222,50.179648
220.275556,50.179648
220.527222,50.28611
220.834167,50.315145
221.09,50.382894
221.329722,50.499034
221.960833,50.518391
222.143056,50.52807
222.390556,50.52807
222.735278,50.52807
223.018056,50.537748
223.273056,50.547426
223.533611,50.566783
223.9075,50.576461
224.146667,50.595818
224.433889,50.605497
224.763333,50.673245
225.019167,50.721637
225.2725,50.711959
225.540278,50.702281
225.888333,50.721637
226.130556,50.731316
226.380833,50.750672
226.727778,50.682924
227.015556,50.692602
227.289444,50.663567
227.908611,50.634532
228.166111,50.595818
228.425556,50.576461
229.062222,50.547426
229.113889,50.547426
229.333056,50.52807
229.7075,50.52807
230.000278,50.557105
230.246389,50.499034
230.483333,50.431286
230.841944,50.440964
231.103889,50.440964
231.355556,50.421607
231.709444,50.411929
231.993611,50.382894
232.261111,50.392572
232.522222,50.353859
232.873611,50.334502
233.136944,50.334502
233.161944,50.34418
233.423333,50.334502
233.788611,50.276431
234.071667,50.257075
234.330556,50.247396
234.563056,50.247396
234.9425,50.305467
235.222778,50.276431
235.465278,50.28611
235.815,50.305467
236.101111,50.305467
236.351111,50.334502
236.595278,50.334502
236.922778,50.353859
237.170556,50.334502
237.428333,50.353859
237.776389,50.382894
238.034167,50.392572
238.312222,50.392572
238.570833,50.402251
238.952222,50.411929
239.215833,50.411929
239.452778,50.431286
239.811111,50.440964
240.098611,50.440964
240.355,50.440964
240.602222,50.450642
240.969444,50.440964
241.234444,50.440964
241.498611,50.460321
241.853056,50.460321
242.11,50.469999
242.365,50.460321
242.612778,50.460321
242.988333,50.469999
243.233333,50.469999
243.494444,50.469999
243.859444,50.489356
244.109444,50.499034
244.354444,50.499034
244.600278,50.499034
244.959167,50.508713
245.186667,50.508713
245.425,50.508713
245.97,50.489356
245.970278,50.489356
246.263889,50.499034
246.52,50.469999
246.871389,50.450642
247.131389,50.440964
247.364167,50.431286
247.721944,50.411929
247.980278,50.411929
248.238611,50.402251
248.975278,50.402251
249.246667,50.402251
249.514722,50.402251
249.886389,50.392572
250.145278,50.382894
250.401944,50.382894
250.719444,50.382894
250.991111,50.402251
251.197778,50.402251
251.246667,50.402251
251.493333,50.402251
251.859167,50.382894
252.130278,50.382894
252.377222,50.392572
252.723611,50.392572
252.982778,50.392572
253.240278,50.392572
253.494444,50.382894
253.814444,50.382894
254.021389,50.382894
254.233889,50.373215
254.432222,50.373215
254.768056,50.363537
255.1,50.363537
255.222222,50.363537
255.321389,50.353859
255.532222,50.353859
255.867222,50.353859
256.072222,50.34418
256.253333,50.34418
256.461944,50.334502
256.785,50.315145
256.991111,50.324823
257.195278,50.315145
257.403333,50.315145
257.601667,50.315145
257.919722,50.305467
258.142222,50.305467
258.3425,50.295788
258.581111,50.295788
258.906111,50.276431
259.109444,50.276431
259.315278,50.295788
259.793611,50.295788
259.998889,50.295788
260.2125,50.28611
260.412222,50.28611
260.75,50.276431
260.974444,50.28611
261.179722,50.276431
261.383889,50.276431
261.591667,50.276431
261.936389,50.276431
262.14,50.266753
262.361389,50.276431
262.569444,50.22804
262.878889,50.199004
263.084722,50.189326
263.3,50.179648
263.509167,50.169969
263.823889,50.160291
264.024444,50.150612
264.231111,50.150612
264.430556,50.140934
264.751944,50.121577
264.966667,50.111899
265.187222,50.102221
265.395556,50.092542
265.602222,50.102221
265.934444,50.092542
266.147222,50.092542
