time,pressure
0.0,107.820027
0.25,106.445696
0.5,105.352038
0.75,104.568089
0.999722,103.638964
1.249722,102.709839
1.499722,102.04203
1.749722,101.412935
1.999444,100.938694
2.249444,100.84191
2.499444,101.08387
2.749444,101.170975
2.999167,101.44197
3.249167,101.345186
3.499167,101.180654
3.749167,101.054834
3.998889,100.929015
4.248889,100.638664
4.498889,100.474131
4.748889,100.328955
4.998611,100.464453
5.248611,100.319277
5.498611,100.019247
5.748611,99.864393
5.998333,99.661147
6.248333,99.477257
6.498333,99.419187
6.748333,99.235298
6.998056,98.993338
7.248056,98.935268
7.498056,98.770735
7.748056,98.664273
7.998056,98.586846
8.247778,98.49974
8.497778,98.364243
8.747778,98.228745
8.997778,98.054534
9.2475,97.996464
9.4975,97.928715
9.7475,97.812575
9.9975,97.706113
10.247222,97.725469
10.497222,97.512545
10.747222,97.473831
10.997222,97.357691
11.246944,97.357691
11.496944,97.396404
11.746944,97.193158
11.996944,97.144766
12.246944,97.154444
12.496667,96.99959
12.746667,96.989912
12.996667,96.94152
13.246667,96.922163
13.496389,96.767309
13.746389,96.835058
13.996389,96.670525
14.246389,96.622133
14.496111,96.486636
14.746111,96.505992
14.996111,96.409209
15.246111,96.380173
15.495833,96.312425
15.745833,96.293068
15.995833,96.186606
16.245833,96.109179
16.495556,96.070465
16.745556,96.0995
16.995556,96.234998
17.245556,95.876897
17.495556,95.993038
17.745278,95.905932
17.995278,95.915611
18.245278,95.809149
18.495278,95.702686
18.745,95.751078
18.995,95.693008
19.245,95.79947
19.495,95.722043
19.744722,95.576867
19.994722,95.576867
20.244722,95.567189
20.494722,95.557511
20.744444,95.518797
20.994444,95.489762
21.244444,95.363943
21.494444,95.538154
21.744167,95.3833
21.994167,95.451048
22.244167,95.363943
22.494167,95.3833
22.743889,95.286516
22.993889,95.228445
23.243889,95.247802
23.493889,95.218767
23.743611,95.238124
23.993611,95.19941
24.243611,94.996164
24.493611,94.976807
24.743333,95.054234
24.993333,94.976807
25.243333,95.063913
25.493333,94.957451
25.743056,94.889702
25.993056,94.957451
26.243056,94.821953
26.493056,94.821953
26.743056,94.84131
26.992778,94.84131
27.242778,94.850988
27.492778,94.821953
27.742778,94.686456
27.9925,94.667099
28.2425,94.715491
28.4925,94.618707
28.7425,94.638064
28.992222,94.48321
29.242222,94.463853
29.492222,94.531602
29.742222,94.502566
29.991944,94.425139
30.241944,94.347712
30.491944,94.386426
30.741944,94.473531
30.991667,94.357391
31.241667,94.24125
31.491667,94.231572
31.741667,94.260607
31.991389,94.086396
32.241389,94.144466
32.491389,94.144466
32.741389,94.067039
32.991111,94.008969
33.241111,94.086396
33.491111,93.989612
33.741111,93.960577
33.990833,94.018647
34.240833,93.844436
34.490833,93.921863
34.740833,93.815401
34.990556,93.834758
35.240556,93.679903
35.490556,93.805722
35.740556,93.621833
35.990278,93.69926
36.240278,93.554084
36.490278,93.670225
36.740278,93.64119
36.99,93.554084
37.24,93.496014
37.49,93.476657
37.74,93.437944
37.989722,93.476657
38.239722,93.447622
38.489722,93.312125
38.739722,92.489462
38.989444,92.963703
39.239444,92.944346
39.489444,92.828205
39.739444,92.663673
39.989167,93.176627
40.239167,92.68303
40.489167,92.508819
40.739167,92.528175
40.989167,92.586246
41.238889,92.170075
41.488889,92.19911
41.738889,92.7411
41.988889,92.034578
42.238611,91.908759
42.488611,91.724869
42.738611,91.734548
42.988611,92.305572
43.238333,92.44107
43.488333,91.763583
43.738333,92.431391
43.988333,91.889402
44.238056,91.666799
44.488056,92.324929
44.738056,91.84101
44.988056,91.269985
45.237778,91.870045
45.487778,91.753904
45.737778,91.976507
45.987778,91.608729
46.2375,91.318377
46.4875,91.453874
46.7375,91.686156
46.9875,91.773261
47.237222,91.279663
47.487222,91.173201
47.737222,92.063613
47.987222,91.424839
48.236944,91.153844
48.486944,91.289342
48.736944,91.744226
48.986944,91.173201
49.236667,91.676477
49.486667,91.269985
49.736667,91.405482
49.986667,91.453874
50.236667,91.279663
50.486389,91.492588
50.736389,91.163523
50.986389,91.037704
51.236389,91.647442
51.486111,90.795744
51.736111,91.086096
51.986111,91.521623
52.236111,91.308699
52.485833,90.902206
52.735833,91.357091
52.985833,90.99899
53.235833,91.395804
53.485556,90.679603
53.735556,90.921563
53.985556,90.931241
54.235556,90.505392
54.485278,91.579693
54.735278,91.163523
54.985278,91.18288
55.235278,91.308699
55.485,90.69896
55.735,90.99899
55.985,90.853814
56.235,90.679603
56.484722,90.94092
56.734722,90.834458
56.984722,90.350538
57.234722,91.211915
57.484444,90.437644
57.734444,90.969955
57.984444,90.602176
58.234444,90.718317
58.484167,90.786066
58.734167,90.824779
58.984167,90.031151
59.234167,90.969955
59.483889,90.302146
59.733889,90.815101
59.983889,90.553784
60.233889,90.360217
60.483611,90.050508
60.733611,90.863493
60.983611,90.263433
61.233611,90.834458
61.483333,90.069865
61.733333,90.176327
61.983333,90.727995
62.233333,90.379573
62.483056,89.450448
62.733056,89.924689
62.983056,90.195684
63.233056,89.760157
63.483056,90.457
63.732778,89.624659
63.982778,90.002116
64.232778,90.186006
64.482778,90.321503
64.7325,90.15697
64.9825,89.924689
65.2325,89.924689
65.4825,89.924689
65.732222,89.566589
65.982222,90.031151
66.232222,89.98276
66.482222,89.847262
66.731944,89.68273
66.981944,90.060187
67.231944,89.343986
67.481944,90.28279
67.731667,89.614981
67.981667,90.108579
68.231667,90.060187
68.481667,89.005242
68.731389,90.408609
68.981389,89.98276
69.231389,89.276237
69.481389,89.566589
69.731111,89.111705
69.981111,89.576267
70.231111,89.247202
70.481111,89.547232
70.730833,88.985886
70.980833,89.421413
71.230833,89.55691
71.480833,89.421413
71.730833,88.995564
71.980556,88.918137
72.230556,89.450448
72.480556,89.208489
72.730556,88.927815
72.980278,89.160097
73.230278,88.831031
73.480278,89.25688
73.730278,88.869745
73.98,88.89878
74.23,88.889102
74.48,88.695534
74.73,89.014921
74.979722,88.937494
75.229722,88.695534
75.479722,88.743926
75.729722,88.695534
75.979722,88.666499
76.229444,89.014921
76.479444,88.424539
76.729444,88.792318
76.979444,88.850388
77.229167,88.714891
77.479167,88.395504
77.729167,88.076117
77.979167,88.714891
78.228889,88.35679
78.478889,88.105152
78.728889,88.337434
78.978889,88.337434
79.228611,88.492288
79.478611,89.024599
79.728611,88.463253
79.978611,88.724569
80.228333,88.550358
80.478333,87.611555
80.728333,88.831031
80.978333,89.072991
81.228333,87.766409
81.478056,88.724569
81.728056,88.947172
81.978056,87.950298
82.228056,88.29872
82.477778,87.892228
82.727778,88.385826
82.977778,87.747052
83.227778,88.627785
83.4775,88.385826
83.7275,87.853514
83.9775,88.453574
84.2275,88.831031
84.477222,88.666499
84.727222,87.959977
84.977222,88.463253
85.227222,88.637464
85.476944,88.327755
85.726944,87.75673
85.976944,89.005242
86.226944,87.88255
86.476944,88.501966
86.726667,89.08267
86.976667,88.047082
87.226667,88.250328
87.476667,88.327755
87.726389,87.630911
87.976389,87.688982
88.226389,88.579393
88.476389,87.321203
88.726111,88.860067
88.976111,87.321203
89.226111,88.78264
89.476111,87.176027
89.726111,88.008369
89.975833,88.395504
90.225833,88.763283
90.475833,88.569715
90.725833,87.611555
90.975556,87.901906
91.225556,88.124509
91.475556,87.195384
91.725556,87.911585
91.975278,87.979333
92.225278,87.785766
92.475278,87.563163
92.725278,87.650268
92.975,87.795444
93.225,88.008369
93.475,87.427665
93.725,87.505092
93.975,87.630911
94.224722,87.679303
94.474722,87.301846
94.724722,87.621233
94.974722,87.650268
95.224444,87.843836
95.474444,87.892228
95.724444,87.030851
95.974444,87.021173
96.224167,87.0986
96.474167,87.34056
96.724167,86.788892
96.974167,87.021173
97.223889,87.476057
97.473889,87.514771
97.543611,88.453574
97.543889,88.453574
97.544167,88.453574
97.544444,88.453574
97.544722,88.453574
97.545,88.453574
97.545278,88.453574
97.545556,88.453574
97.545833,88.453574
97.546111,88.453574
97.546389,88.453574
97.546667,88.453574
97.546944,88.453574
97.547222,88.453574
97.5475,88.453574
97.547778,88.453574
97.5975,89.85694
97.597778,89.85694
97.598056,89.85694
97.598333,89.85694
97.598611,90.273111
97.598889,90.273111
97.599167,90.273111
97.599444,90.273111
97.599722,90.273111
97.600278,90.273111
97.850278,86.111405
98.100278,86.363043
98.35,86.721143
98.6,87.437344
98.85,86.643716
99.1,86.421113
99.349722,86.488862
99.599722,87.669625
99.849722,86.179153
100.099722,87.050208
100.349444,87.476057
100.599444,87.959977
100.849444,86.150118
101.099444,86.450148
101.349167,87.079243
101.599167,86.208189
101.849167,86.672751
102.099167,86.121083
102.349167,86.246902
102.598889,86.79857
102.848889,86.808249
103.098889,87.369595
103.348889,87.718017
103.598611,95.460727
103.848611,96.302746
103.983333,97.589972
103.983611,97.589972
103.983889,97.589972
103.984167,97.589972
103.984444,97.589972
103.984722,97.589972
103.985,97.589972
103.985278,97.589972
103.989722,97.589972
103.99,97.589972
103.990278,97.589972
103.990556,97.589972
103.990833,97.589972
103.991111,97.589972
103.991389,97.589972
103.991667,97.589972
103.991944,97.589972
103.992222,97.589972
103.9925,97.589972
103.992778,97.589972
103.993056,97.589972
103.993333,97.589972
103.993611,97.589972
103.993889,97.589972
103.994167,97.589972
103.994444,97.280263
103.994722,97.280263
103.995,97.280263
103.995278,97.280263
103.995556,97.280263
103.995833,97.280263
103.996111,97.280263
103.996389,97.280263
103.996667,97.280263
103.996944,97.280263
103.997222,97.280263
103.9975,97.280263
103.997778,97.280263
103.998056,97.280263
103.998333,97.280263
103.998611,97.280263
103.998889,97.280263
103.999167,97.280263
103.999444,97.280263
103.999722,97.280263
104.0,97.280263
104.000278,97.280263
104.000556,97.280263
104.000833,97.280263
104.001111,97.280263
104.001389,97.280263
104.001667,97.280263
104.001944,97.280263
104.002222,97.280263
104.0025,97.280263
104.002778,97.280263
104.003056,97.280263
104.003333,97.280263
104.003611,97.280263
104.003889,97.280263
104.004167,97.280263
104.004444,97.280263
104.004722,97.280263
104.005,97.280263
104.005278,97.280263
104.005556,97.280263
104.005833,97.280263
104.006111,97.280263
104.006389,96.825379
104.006667,96.825379
104.006944,96.825379
104.007222,96.825379
104.0075,96.825379
104.007778,96.825379
104.008056,96.825379
104.008333,96.825379
104.008611,96.825379
104.008889,96.825379
104.009167,96.825379
104.009444,96.825379
104.009722,96.825379
104.01,96.825379
104.010278,96.825379
104.010556,96.825379
104.010833,96.825379
104.011111,96.825379
104.011389,96.825379
104.011667,96.825379
104.011944,96.825379
104.012222,96.825379
104.0125,96.825379
104.012778,96.825379
104.013056,96.825379
104.013333,96.825379
104.013611,96.825379
104.013889,96.825379
104.014167,96.825379
104.014444,96.825379
104.014722,96.825379
104.015,96.825379
104.015278,96.825379
104.015556,96.825379
104.015833,96.825379
104.016111,96.825379
104.016389,96.825379
104.016667,96.825379
104.016944,96.825379
104.017222,96.825379
104.0175,96.825379
104.017778,96.825379
104.018056,96.573741
104.018333,96.573741
104.018611,96.573741
104.018889,96.573741
104.019167,96.573741
104.019444,96.573741
104.019722,96.573741
104.02,96.573741
104.020278,96.573741
104.020556,96.573741
104.020833,96.573741
104.021111,96.573741
104.021389,96.573741
104.021667,96.573741
104.021944,96.573741
104.022222,96.573741
104.0225,96.573741
104.022778,96.573741
104.023056,96.573741
104.023333,96.573741
104.023611,96.573741
104.023889,96.573741
104.024167,96.573741
104.024444,96.573741
104.024722,96.573741
104.025,96.573741
104.025278,96.573741
104.025556,96.573741
104.025833,96.573741
104.026111,96.573741
104.026389,96.573741
104.026667,96.573741
104.026944,96.573741
104.027222,96.573741
104.0275,96.573741
104.027778,96.573741
104.028056,96.573741
104.028333,96.573741
104.028611,96.573741
104.028889,96.573741
104.029167,96.573741
104.029444,96.573741
104.029722,96.176927
104.03,96.176927
104.030278,96.176927
104.030556,96.176927
104.030833,96.176927
104.031111,96.176927
104.031389,96.176927
104.031667,96.176927
104.031944,96.176927
104.032222,96.176927
104.0325,96.176927
104.032778,96.176927
104.033056,96.176927
104.033333,96.176927
104.033611,96.176927
104.033889,96.176927
104.034167,96.176927
104.034444,96.176927
104.034722,96.176927
104.035,96.176927
104.035278,96.176927
104.035556,96.176927
104.035833,96.176927
104.036111,96.176927
104.036389,96.176927
104.036667,96.176927
104.036944,96.176927
104.037222,96.176927
104.0375,96.176927
104.037778,96.176927
104.038056,96.176927
104.038333,96.176927
104.038611,96.176927
104.038889,96.176927
104.039167,96.176927
104.039444,96.176927
104.039722,96.176927
104.04,96.176927
104.040278,96.176927
104.040556,96.176927
104.040833,96.176927
104.041111,96.176927
104.041389,95.915611
104.041667,95.915611
104.041944,95.915611
104.042222,95.915611
104.0425,95.915611
104.042778,95.915611
104.043056,95.915611
104.043333,95.915611
104.043611,95.915611
104.043889,95.915611
104.044167,95.915611
104.044444,95.915611
104.044722,95.915611
104.045,95.915611
104.045278,95.915611
104.045556,95.915611
104.045833,95.915611
104.046111,95.915611
104.046389,95.915611
104.046944,95.915611
104.055278,95.905932
104.063611,95.905932
104.071944,96.370495
104.080278,97.318977
104.088611,98.248102
104.096944,98.248102
104.105278,98.98366
104.113611,99.467579
104.121944,99.467579
104.130278,99.738574
104.138611,99.767609
104.146944,99.767609
104.155278,99.39983
104.163611,98.973981
104.171944,98.431992
104.180278,98.431992
104.188611,97.609329
104.196944,96.844736
104.205278,96.844736
104.213611,96.302746
104.221944,95.915611
104.230278,95.518797
104.238611,95.518797
104.246944,95.189732
104.255278,94.909059
104.263611,94.909059
104.271944,94.686456
104.280278,94.502566
104.281389,94.502566
104.2825,94.502566
104.290833,94.357391
104.299167,94.357391
104.3075,94.008969
104.315833,93.515371
104.324167,93.012095
104.3325,93.012095
104.340833,92.450748
104.349167,91.831331
104.3575,91.831331
104.365833,91.250628
104.374167,90.727995
104.3825,90.292468
104.390833,90.292468
104.399167,89.953724
104.4075,89.624659
104.415833,89.624659
104.424167,89.343986
104.4325,89.092348
104.440833,88.918137
104.448889,88.918137
104.457222,88.65682
104.465556,88.230971
104.473889,88.230971
104.482222,87.853514
104.490556,87.534128
104.498889,87.534128
104.507222,87.117957
104.515556,86.537254
104.523889,85.95655
104.532222,85.95655
104.540556,85.472631
104.548889,85.211315
104.557222,85.211315
104.565556,85.017747
104.573889,84.959677
104.582222,85.037104
104.590556,85.037104
104.598889,85.211315
104.607222,85.269385
104.615556,85.269385
104.623889,85.153244
104.632222,84.979033
104.640556,84.804822
104.648889,84.804822
104.657222,84.679003
104.665556,84.708039
104.673889,84.708039
104.682222,84.814501
104.690556,84.959677
104.698889,84.959677
104.707222,85.114531
104.715556,85.172601
104.723889,85.211315
104.732222,85.211315
104.740556,85.24035
104.748889,85.29842
104.757222,85.29842
104.765556,85.414561
104.773889,85.521023
104.782222,85.65652
104.790556,85.65652
104.798889,85.801696
104.807222,85.917837
104.815556,85.917837
104.823889,86.014621
104.832222,86.101726
104.840556,86.150118
104.848889,86.150118
104.857222,86.217867
104.865556,86.246902
104.873889,86.246902
104.882222,86.266259
104.890556,86.304972
104.898889,86.295294
104.907222,86.295294
104.915556,86.227545
104.923889,86.101726
104.932222,86.101726
104.940556,85.985586
104.948889,85.869445
104.957222,85.869445
104.965556,85.801696
104.973889,85.714591
104.982222,85.579093
104.990556,85.579093
104.998889,85.433918
105.007222,85.259707
105.015556,85.259707
105.023889,85.037104
105.032222,84.833858
105.040556,84.649968
105.048889,84.649968
105.057222,84.533828
105.065556,84.504792
105.073889,84.504792
105.082222,84.533828
105.090556,84.601576
105.098889,84.659647
105.107222,84.659647
105.115556,84.746752
105.123889,84.843536
105.132222,84.843536
105.140556,84.911285
105.148889,84.833858
105.157222,84.833858
105.165556,84.669325
105.173889,84.543506
105.182222,84.446722
105.190556,84.446722
105.198889,84.349938
105.207222,84.291868
105.215556,84.291868
105.223889,84.291868
105.232222,84.291868
105.240556,84.291868
105.248889,84.291868
105.257222,84.311225
105.265556,84.349938
105.273889,84.349938
105.282222,84.427365
105.290556,84.495114
105.298889,84.582219
105.307222,84.582219
105.315556,84.649968
105.323889,84.717717
105.332222,84.717717
105.340556,84.775787
105.348889,84.824179
105.357222,84.872571
105.365556,84.872571
105.373889,84.920963
105.382222,84.959677
105.390556,84.959677
105.398889,84.979033
105.407222,85.008069
105.415556,85.008069
105.423889,85.027425
105.432222,85.046782
105.440556,85.046782
105.448889,85.046782
105.457222,85.05646
105.465556,85.075817
105.473889,85.075817
105.482222,85.095174
105.490556,85.124209
105.498889,85.153244
105.507222,85.153244
105.515556,85.162923
105.523611,85.124209
105.531944,85.124209
105.540278,85.046782
105.548611,84.949998
105.556944,84.853214
105.565278,84.853214
105.573611,84.727395
105.581944,84.543506
105.590278,84.543506
105.598611,84.39833
105.606944,84.301546
105.615278,84.262833
105.623611,84.262833
105.631944,84.243476
105.640278,84.272511
105.648611,84.272511
105.656944,84.320903
105.665278,84.378973
105.673611,84.378973
105.681944,84.437044
105.690278,84.485436
105.698611,84.543506
105.706944,84.543506
105.715278,84.582219
105.723611,84.611255
105.731944,84.611255
105.740278,84.659647
105.748611,84.708039
105.756944,84.717717
105.765278,84.717717
105.773611,84.630611
105.781944,84.514471
105.790278,84.514471
105.798611,84.388652
105.806944,84.311225
105.815278,84.243476
105.823611,84.243476
105.831944,84.253154
105.840278,84.262833
105.848611,84.262833
105.856944,84.311225
105.865278,84.349938
105.873611,84.349938
105.881944,84.388652
105.890278,84.417687
105.898611,84.466079
105.906944,84.466079
105.915278,84.504792
105.923611,84.543506
105.931944,84.543506
105.940278,84.572541
105.948611,84.524149
105.956944,84.417687
105.965278,84.417687
105.973611,84.330581
105.981944,84.262833
105.990278,84.262833
105.998611,84.253154
106.006944,84.253154
106.015278,84.282189
106.023611,84.282189
106.031944,84.320903
106.040278,84.349938
106.048611,84.349938
106.056944,84.39833
106.065278,84.446722
106.073611,84.446722
106.081944,84.495114
106.090278,84.533828
106.098611,84.572541
106.106944,84.572541
106.115278,84.611255
106.123611,84.630611
106.131944,84.630611
106.140278,84.649968
106.148611,84.669325
106.156944,84.708039
106.165278,84.708039
106.173611,84.727395
106.181944,84.669325
106.190278,84.669325
106.198611,84.582219
106.206944,84.4564
106.215278,84.330581
106.223611,84.330581
106.231944,84.272511
106.240278,84.233798
106.248611,84.233798
106.256944,84.243476
106.265278,84.272511
106.273611,84.301546
106.281944,84.301546
106.290278,84.34026
106.298611,84.369295
106.306944,84.369295
106.315278,84.417687
106.323611,84.466079
106.331944,84.466079
106.340278,84.495114
106.348611,84.524149
106.356944,84.543506
106.365278,84.543506
106.373611,84.582219
106.381944,84.601576
106.390278,84.601576
106.398611,84.64029
106.406944,84.669325
106.415278,84.688682
106.423611,84.688682
106.431944,84.688682
106.440278,84.630611
106.448611,84.630611
106.456944,84.543506
106.465278,84.446722
106.473611,84.369295
106.481944,84.369295
106.490278,84.349938
106.498611,84.34026
106.506944,84.34026
106.515278,84.359617
106.523611,84.388652
106.531944,84.388652
106.540278,84.417687
106.548611,84.446722
106.556944,84.485436
106.565278,84.485436
106.573611,84.533828
106.581667,84.582219
106.59,84.582219
106.598333,84.611255
106.606667,84.659647
106.615,84.688682
106.623333,84.688682
106.631667,84.727395
106.64,84.766109
106.648333,84.766109
106.656667,84.785466
106.665,84.814501
106.673333,84.833858
106.681667,84.833858
106.69,84.862893
106.698333,84.891928
106.706667,84.891928
106.715,84.911285
106.723333,84.920963
106.731667,84.882249
106.74,84.882249
106.748333,84.833858
106.756667,84.766109
106.765,84.766109
106.773333,84.708039
106.781667,84.679003
106.79,84.679003
106.798333,84.679003
106.806667,84.688682
