time,pressure
0.0,209.374689
0.416667,203.375057
0.916667,198.375202
1.916667,188.374525
3.416667,180.375338
4.416667,173.37496
6.416667,163.375251
8.916667,151.375019
14.416667,135.374709
18.416667,124.375222
21.416667,119.375367
23.916667,114.375512
25.416667,111.375212
28.416667,105.37558
30.416667,101.375502
32.916667,97.375425
38.416667,89.37527
42.416667,81.375115
47.416667,72.375183
49.416667,68.375106
52.416667,64.375028
54.416667,60.374951
56.916667,55.375096
62.416667,46.375164
66.416667,39.375754
71.7,33.375154
71.866667,35.375677
72.25,34.374931
72.416667,35.375677
72.733333,34.374931
74.55,35.375677
74.866667,34.374931
76.65,35.375677
76.916667,34.374931
78.416667,34.374931
80.5,35.375677
80.8,34.374931
86.916667,35.375677
87.183333,34.374931
97.666667,35.375677
97.883333,34.374931
102.416667,34.374931
104.25,35.375677
104.466667,34.374931
113.75,35.375677
114.933333,34.374931
121.6,35.375677
121.8,34.374931
126.416667,34.374931
128.766667,35.375677
128.95,34.374931
140.55,35.375677
140.733333,34.374931
145.35,35.375677
145.55,34.374931
150.416667,34.374931
164.1,35.375677
164.283333,34.374931
169.55,35.375677
169.716667,34.374931
174.416667,34.374931
188.55,35.375677
188.716667,34.374931
193.75,35.375677
193.916667,34.374931
198.416667,34.374931
212.633333,35.375677
212.816667,34.374931
217.566667,35.375677
217.733333,34.374931
222.416667,34.374931
236.4,35.375677
236.566667,34.374931
241.45,35.375677
241.6,34.374931
246.416667,34.374931
260.2,35.375677
260.366667,34.374931
264.15,35.375677
264.316667,34.374931
270.416667,34.374931
277.4,35.375677
277.566667,34.374931
289.333333,35.375677
289.5,33.375154
294.416667,33.375154
300.583333,35.375677
300.75,34.374931
313.7,35.375677
313.866667,33.375154
318.416667,33.375154
323.233333,35.375677
323.383333,34.374931
337.55,35.375677
337.716667,33.375154
342.416667,33.375154
347.25,35.375677
347.3,34.374931
361.683333,35.375677
361.833333,33.375154
366.416667,33.375154
380.633333,35.375677
380.816667,33.375154
385.533333,35.375677
385.683333,33.375154
390.416667,33.375154
394.366667,35.375677
394.533333,33.375154
409.9,35.375677
410.05,33.375154
414.416667,33.375154
424.983333,35.375677
425.116667,33.375154
433.633333,35.375677
433.766667,33.375154
438.416667,33.375154
442.416667,35.375677
442.566667,33.375154
457.866667,35.375677
458.016667,33.375154
462.416667,33.375154
475.066667,35.375677
475.083333,33.375154
481.416667,35.375677
481.566667,33.375154
486.416667,33.375154
496.45,35.375677
496.616667,33.375154
505.466667,35.375677
505.633333,33.375154
510.416667,33.375154
515.233333,35.375677
515.383333,33.375154
529.733333,35.375677
529.883333,33.375154
534.416667,33.375154
545.016667,35.375677
545.15,33.375154
553.733333,35.375677
553.9,33.375154
558.416667,33.375154
566.533333,35.375677
566.666667,33.375154
577.5,35.375677
577.65,33.375154
582.416667,33.375154
591.216667,35.375677
591.283333,33.375154
601.75,35.375677
601.9,33.375154
606.416667,33.375154
616.6,35.375677
616.733333,33.375154
625.516667,35.375677
625.65,33.375154
630.416667,33.375154
640.516667,35.375677
640.65,33.375154
649.816667,35.375677
649.966667,33.375154
654.416667,33.375154
664.816667,35.375677
664.966667,33.375154
673.8,35.375677
673.933333,33.375154
678.416667,33.375154
689.366667,35.375677
689.516667,33.375154
697.633333,35.375677
697.783333,33.375154
702.416667,33.375154
711.283333,35.375677
711.433333,33.375154
722.25,35.375677
722.4,33.375154
726.416667,33.375154
736.25,35.375677
736.4,33.375154
745.483333,35.375677
745.633333,33.375154
750.416667,33.375154
758.466667,35.375677
758.616667,33.375154
770.483333,35.375677
770.616667,33.375154
774.416667,33.375154
782.15,35.375677
782.3,33.375154
793.816667,35.375677
793.966667,33.375154
798.416667,33.375154
806.3,35.375677
806.45,33.375154
818.083333,35.375677
818.216667,33.375154
822.416667,33.375154
831.666667,35.375677
831.816667,33.375154
841.816667,35.375677
841.966667,33.375154
846.416667,33.375154
855.366667,35.375677
865.916667,35.375677
866.066667,33.375154
870.416667,33.375154
880.25,35.375677
880.383333,33.375154
890.066667,35.375677
890.216667,33.375154
894.416667,33.375154
903.266667,35.375677
903.416667,33.375154
914.083333,35.375677
914.233333,33.375154
918.416667,33.375154
927.633333,35.375677
927.766667,33.375154
937.533333,35.375677
937.683333,33.375154
942.416667,33.375154
950.45,35.375677
950.6,34.374931
962.716667,35.375677
962.883333,34.374931
966.416667,34.374931
974.95,35.375677
975.1,34.374931
986.45,35.375677
986.6,34.374931
990.416667,34.374931
998.633333,35.375677
998.766667,34.374931
1009.55,35.375677
1009.7,34.374931
1014.416667,34.374931
1023.65,35.375677
1023.783333,34.374931
1034.466667,35.375677
1034.616667,34.374931
1038.416667,34.374931
1049.483333,35.375677
1049.616667,34.374931
1058.233333,35.375677
1058.383333,34.374931
1062.416667,34.374931
1069.383333,35.375677
1069.516667,34.374931
1082.033333,35.375677
1082.166667,34.374931
1086.416667,34.374931
1094.066667,35.375677
1094.216667,34.374931
1106.116667,35.375677
1106.266667,34.374931
1110.416667,34.374931
1117.75,35.375677
1117.883333,34.374931
1130.083333,35.375677
1130.233333,34.374931
1134.416667,34.374931
1142.833333,35.375677
1142.966667,34.374931
1153.95,35.375677
1154.1,34.374931
1158.416667,34.374931
1166.016667,35.375677
1166.15,34.374931
1178.016667,35.375677
1178.166667,34.374931
1182.416667,34.374931
1191.466667,35.375677
1191.6,34.374931
1202.05,35.375677
1202.183333,34.374931
1206.416667,34.374931
1214.4,35.375677
1214.533333,34.374931
1225.7,34.374931
1225.85,34.374931
1230.416667,34.374931
1237.383333,35.375677
1237.533333,34.374931
1249.866667,35.375677
1250.016667,34.374931
1254.416667,34.374931
1261.65,35.375677
1261.783333,34.374931
1274.133333,35.375677
1274.266667,34.374931
1278.416667,34.374931
1288.166667,35.375677
1288.316667,34.374931
1299.2,35.375677
1299.366667,34.374931
1302.416667,34.374931
1312.15,35.375677
1312.3,34.374931
1321.966667,35.375677
1322.1,34.374931
1326.416667,34.374931
1333.433333,35.375677
1333.583333,34.374931
1346.133333,35.375677
1346.283333,34.374931
1350.416667,34.374931
1357.216667,35.375677
1357.35,34.374931
1369.9,35.375677
1370.05,33.375154
1374.416667,33.375154
1383.666667,35.375677
1383.8,34.374931
1394.033333,35.375677
1394.166667,33.375154
1398.416667,33.375154
1408.666667,35.375677
1408.8,34.374931
1418.166667,35.375677
1418.316667,33.375154
1422.416667,33.375154
1432.05,35.375677
1432.183333,34.374931
1442.75,35.375677
1442.9,33.375154
1446.416667,33.375154
1456.316667,35.375677
1456.466667,34.374931
1466.666667,35.375677
1466.8,33.375154
1470.416667,33.375154
1479.716667,35.375677
1479.866667,34.374931
1490.533333,35.375677
1490.683333,33.375154
1494.416667,33.375154
1504.116667,35.375677
1504.266667,34.374931
1514.35,35.375677
1514.466667,34.374931
1518.416667,34.374931
1527.583333,35.375677
1527.716667,34.374931
1537.966667,34.374931
1538.116667,33.375154
1542.416667,33.375154
1551.366667,35.375677
1551.516667,34.374931
1562.616667,34.374931
1562.75,33.375154
1566.416667,33.375154
1575.95,35.375677
1576.1,34.374931
1585.933333,35.375677
1586.1,33.375154
1590.416667,33.375154
1599.716667,35.375677
1599.866667,33.375154
1610.116667,34.374931
1610.25,33.375154
1614.416667,33.375154
1627.166667,34.374931
1627.233333,33.375154
1633.866667,34.374931
1634.016667,33.375154
1638.416667,33.375154
1648.116667,34.374931
1648.266667,33.375154
1658.116667,32.375377
1658.283333,31.375599
1662.416667,31.375599
1675.283333,32.375377
1675.45,31.375599
1681.85,32.375377
1682.016667,31.375599
1686.416667,31.375599
1695.666667,32.375377
1695.8,31.375599
1705.666667,33.375154
1705.833333,32.375377
1710.416667,32.375377
1723.333333,33.375154
1723.5,32.375377
1730.85,33.375154
1731.016667,32.375377
1734.416667,32.375377
1747.6,33.375154
1747.766667,32.375377
1754.666667,33.375154
1754.833333,32.375377
1758.416667,32.375377
1770.933333,34.374931
1771.1,33.375154
1777.516667,34.374931
1777.683333,33.375154
1782.416667,33.375154
1801.8,34.374931
1801.966667,32.375377
1806.416667,32.375377
