time,pressure
0.0,233.965959
0.158333,233.985315
0.356111,233.95628
0.395833,233.95628
0.547778,231.894784
0.7525,228.604132
0.886389,226.862022
1.042778,225.110234
1.3275,222.361572
1.636111,220.038759
1.784444,219.061242
1.931111,218.267614
2.080278,217.435273
2.236111,216.622289
2.405,215.838339
2.696111,214.609184
3.004722,213.515526
3.033333,213.515526
3.165,212.983215
3.337778,212.41219
3.455,212.044412
3.682778,211.376603
3.824167,210.979789
4.003611,210.505548
4.037222,210.505548
4.165,210.108734
4.329722,209.71192
4.469722,209.392533
4.650278,209.005398
4.787778,208.724725
4.9375,208.434373
5.086944,208.134343
5.215833,207.902062
5.235556,207.873027
5.451667,207.49557
5.653611,207.156826
6.001111,206.624515
6.130833,206.440625
6.394167,206.082525
6.553056,205.879279
6.682222,205.879279
6.735556,205.656676
6.855556,205.5115
6.992222,205.550214
7.138333,205.337289
7.262778,205.172757
7.397778,205.017902
7.518056,204.872727
7.691667,204.872727
7.733889,204.650124
7.875833,204.504948
7.977778,204.504948
8.0225,204.350094
8.230278,204.156526
8.388056,204.001672
8.536944,203.866174
8.72,203.71132
8.8775,203.566144
8.986111,203.566144
9.0225,203.459682
9.148333,203.35322
9.269722,203.35322
9.296111,203.237079
9.488889,203.072547
9.771944,202.8693
9.910278,202.762838
10.059444,202.646698
10.180278,202.559592
10.31,202.559592
10.323333,202.462808
10.453611,202.375703
10.689444,202.375703
10.706667,202.182135
10.849722,202.075673
10.980556,201.998246
11.104167,201.91114
11.2325,201.833713
11.521389,201.649824
11.693333,201.649824
11.800833,201.485291
11.944722,201.485291
11.956111,201.388507
12.093611,201.31108
16.247778,201.31108
16.251111,199.317332
16.366389,199.278619
16.499444,199.278619
16.511111,199.21087
16.688333,199.143121
16.823333,199.085051
16.961111,199.026981
17.095556,198.96891
17.245,198.91084
17.379722,198.843091
17.519167,198.843091
17.523333,198.785021
17.694722,198.717272
17.776944,198.717272
17.984722,198.601132
18.136389,198.543061
18.240556,198.504348
18.388056,198.446278
18.725833,198.330137
18.780278,198.330137
18.861944,198.272067
18.994444,198.233353
19.038611,198.233353
19.122222,198.175283
19.261944,198.126891
19.390278,198.078499
19.5125,198.039785
19.709722,197.972037
19.904722,197.904288
20.04,197.904288
20.05,197.855896
20.201389,197.807504
20.303611,197.807504
20.333889,197.759112
20.470833,197.720398
20.796944,197.594579
20.925278,197.555866
21.199444,197.459082
21.311944,197.459082
21.358611,197.41069
21.465,197.371977
21.62,197.371977
21.646389,197.313906
21.826944,197.255836
21.953611,197.217122
22.094444,197.16873
22.232778,197.120338
22.3675,197.081625
22.477778,197.05259
22.661111,197.05259
22.668889,196.984841
22.836389,196.936449
22.916944,196.936449
23.006111,196.878379
23.127778,196.849344
23.279167,196.800952
23.399444,196.762238
23.530833,196.723525
23.725,196.665454
23.866944,196.626741
23.951111,196.626741
24.018611,196.588027
24.187778,196.539635
24.209167,196.539635
24.368611,196.481565
24.535278,196.433173
24.731667,196.384781
24.863056,196.346068
24.992778,196.307354
25.135278,196.258962
25.225556,196.258962
25.251944,196.21057
25.388611,196.181535
25.492778,196.181535
25.534167,196.133143
25.691667,196.084751
25.820556,196.046038
25.953056,196.017002
26.071944,195.978289
26.222778,195.929897
26.381944,195.891183
26.516111,195.891183
26.7375,195.784721
26.776389,195.784721
26.8925,195.746007
27.184167,195.658902
27.338889,195.620188
27.511944,195.581475
27.754722,195.523405
27.810278,195.523405
27.905833,195.484691
28.075833,195.484691
28.1025,195.436299
28.251389,195.397586
28.380833,195.378229
28.533056,195.349194
28.740556,195.300802
28.872222,195.271767
29.036111,195.242731
29.098056,195.242731
29.193889,195.213696
29.346111,195.174983
29.3675,195.174983
29.469444,195.155626
29.675,195.116912
29.808611,195.087877
29.957222,195.058842
30.092778,195.039485
30.243889,195.01045
30.3875,195.01045
30.418611,194.971737
30.621389,194.942701
30.646667,194.942701
30.793889,194.903988
30.948611,194.874953
31.081944,194.855596
31.223611,194.826561
31.3675,194.797526
31.448889,194.787847
31.667222,194.787847
31.679444,194.874953
31.819722,194.807204
31.933333,194.807204
32.071111,194.729777
32.189444,194.71042
32.333889,194.681385
32.438611,194.662028
32.635278,194.623315
32.770833,194.584601
32.944444,194.584601
33.056667,194.536209
33.207778,194.536209
33.211944,194.497496
33.325833,194.478139
33.473889,194.439425
33.808889,194.381355
33.929167,194.361998
34.046944,194.332963
34.201111,194.294249
34.221944,194.294249
34.343333,194.284571
34.487222,194.284571
34.641111,194.226501
34.833333,194.187787
34.975833,194.158752
35.134722,194.129717
35.261944,194.11036
35.395833,194.091003
35.5075,194.091003
35.5225,194.061968
35.715,194.023255
35.768056,194.023255
35.881667,193.984541
36.016944,193.965184
36.14,193.936149
36.264722,193.916792
36.408889,193.878079
36.541111,193.8684
36.705,193.839365
36.770556,193.839365
36.856667,193.81033
37.026111,193.81033
37.1225,193.761938
37.398333,193.713546
37.516111,193.694189
37.825,193.645797
37.954722,193.616762
38.027222,193.616762
38.216667,193.578049
38.285556,193.578049
38.3575,193.558692
38.525,193.529657
38.731111,193.500622
38.865833,193.471587
38.991111,193.45223
39.136667,193.432873
39.263056,193.403838
39.288333,193.403838
39.412778,193.374803
39.522778,193.365124
39.543333,193.365124
39.721389,193.326411
39.906944,193.297376
40.048889,193.278019
40.189722,193.248984
40.315,193.229627
40.452778,193.21027
40.550556,193.21027
40.645,193.181235
40.831389,193.181235
40.838333,193.1522
40.989722,193.123165
41.145,193.103808
41.286667,193.074773
41.396944,193.065094
41.538333,193.036059
41.722778,193.007024
41.853333,193.007024
41.886111,192.977989
42.019167,192.958632
42.133056,192.958632
42.138056,192.939275
42.282222,192.919918
42.402778,192.900562
42.531944,192.890883
42.701389,192.85217
42.823333,192.842491
42.965833,192.813456
43.0725,192.803778
43.136667,192.803778
43.2,192.784421
43.346667,192.765064
43.392222,192.765064
43.489722,192.736029
43.674167,192.716672
43.811944,192.697316
43.95,192.677959
44.098056,192.648924
44.213333,192.629567
44.360833,192.61021
44.396944,192.61021
44.490833,192.581175
44.6525,192.581175
44.819722,192.532783
44.953889,192.523105
45.0925,192.494069
45.256111,192.474713
45.404167,192.445677
45.632222,192.416642
45.653056,192.416642
45.775278,192.397286
45.923333,192.397286
45.931667,192.36825
46.097222,192.339215
46.231944,192.329537
46.400833,192.300502
46.626111,192.261788
46.775833,192.242431
46.918889,192.213396
46.94,192.213396
47.1025,192.194039
47.220278,192.194039
47.246111,192.165004
47.628333,192.106934
47.999167,192.048864
48.180556,192.019828
48.249444,192.019828
48.326111,192.000472
48.501667,192.000472
48.5575,191.971436
48.739722,191.942401
48.8775,191.932723
49.043889,191.903688
49.197222,191.874653
49.382222,191.855296
49.519444,191.855296
49.527778,191.826261
49.741944,191.797226
49.772778,191.797226
49.905556,191.787547
50.023056,191.76819
50.155278,191.748834
50.405278,191.71012
50.738056,191.661728
50.778056,191.661728
51.065,191.661728
51.076944,191.613336
51.218333,191.593979
51.381944,191.574623
51.501667,191.555266
51.710278,191.535909
51.870556,191.516552
52.040278,191.487517
52.077222,191.487517
52.144722,191.477839
52.268611,191.46816
52.328611,191.46816
52.409167,191.448804
52.628611,191.429447
52.781111,191.41009
52.915556,191.400412
53.036111,191.381055
53.3125,191.35202
53.3475,191.35202
53.610833,191.35202
53.765278,191.313306
53.872222,191.303628
53.999722,191.284271
54.1375,191.284271
54.285833,191.274593
54.425833,191.245557
54.548333,191.235879
54.626389,191.235879
54.709444,191.216522
54.860556,191.206844
54.877778,191.206844
55.040833,191.187487
55.177778,191.177809
55.298611,191.158452
55.416389,191.148774
55.555,191.129417
55.740556,191.119738
55.883056,191.119738
55.888611,191.100382
56.018333,191.081025
56.139722,191.081025
56.144722,191.081025
56.301389,191.061668
56.416111,191.042311
56.549167,191.032633
56.725,191.022955
56.923611,191.003598
57.061944,190.984241
57.170556,190.984241
57.218056,190.974563
57.358333,190.974563
57.457222,190.974563
57.498611,190.955206
57.666111,190.945527
57.868889,190.926171
57.993611,190.916492
58.139167,190.906814
58.291111,190.887457
58.420278,190.877779
58.460833,190.877779
58.538889,190.877779
58.717222,190.877779
58.7275,190.858422
58.918611,190.839065
59.060556,190.829387
59.213333,190.819708
59.348889,190.800352
59.491667,190.790673
59.696944,190.771316
59.728889,190.771316
59.800278,190.771316
59.961111,190.761638
59.986111,190.761638
60.108611,190.742281
60.245556,190.732603
60.379444,190.722925
60.490556,190.722925
60.669444,190.713246
60.835833,190.703568
60.972222,190.693889
60.989167,190.693889
61.096667,190.674533
61.238333,190.674533
61.255,190.674533
61.497222,190.655176
61.7,190.645497
61.847222,190.635819
61.985556,190.626141
62.28,190.626141
62.303333,190.606784
62.426667,190.597106
62.534722,190.597106
62.623056,190.587427
62.881111,190.56807
63.019444,190.56807
63.138889,190.558392
63.277778,190.558392
63.406389,190.539035
63.532778,190.529357
63.559167,190.529357
63.713056,190.519678
63.817222,190.519678
63.821389,190.51
63.954722,190.500322
64.105278,190.500322
64.231111,190.490643
64.375556,190.480965
64.548611,190.471286
64.738611,190.461608
64.845278,190.461608
64.945278,190.45193
65.102222,190.45193
65.119722,190.432573
65.278611,190.432573
65.433056,190.413216
65.556111,190.413216
65.753056,190.403538
65.895278,190.384181
66.118333,190.384181
66.164167,190.364824
66.311111,190.355146
66.405556,190.355146
66.430833,190.345467
66.565278,190.335789
66.753056,190.326111
66.926111,190.306754
67.089444,190.297076
67.231389,190.287397
67.350556,190.287397
67.408333,190.287397
67.500556,190.26804
67.666111,190.26804
67.69,190.258362
67.866111,190.258362
67.991944,190.248684
68.174167,190.239005
68.345833,190.229327
68.550278,190.219648
68.677222,190.219648
68.737778,190.20997
68.899167,190.20997
68.928889,190.20997
69.083333,190.200292
69.244722,190.190613
69.413056,190.180935
69.655,190.161578
69.794444,190.161578
69.951667,190.161578
70.005556,190.142221
70.195833,190.132543
70.222778,190.132543
70.352778,190.132543
70.688611,190.113186
70.822222,190.103508
71.001667,190.093829
71.130833,190.093829
71.225556,190.093829
71.303611,190.084151
71.479167,190.064794
71.508056,190.064794
71.701667,190.055116
71.901389,190.045437
72.053333,190.035759
72.191111,190.026081
72.2975,190.016402
72.494167,190.016402
72.510833,190.016402
72.769722,190.016402
72.846389,189.987367
72.972778,189.987367
73.135,189.977689
73.260833,189.977689
73.400833,189.958332
73.770556,189.958332
73.778056,189.948654
73.918611,189.938975
74.027778,189.938975
74.031944,189.938975
74.195833,189.929297
74.3225,189.919618
74.475833,189.919618
74.735278,189.900262
74.970833,189.890583
75.075,189.890583
75.118889,189.880905
75.236944,189.880905
75.332222,189.880905
75.371944,189.871226
75.499722,189.871226
75.716944,189.861548
75.880833,189.85187
76.19,189.842191
76.325833,189.832513
76.350833,189.832513
76.483889,189.832513
76.626389,189.832513
76.702222,189.813156
76.845833,189.813156
77.122778,189.784121
77.267222,189.774443
77.482222,189.764764
77.657778,189.764764
77.698889,189.745407
77.820833,189.735729
77.917778,189.735729
77.996944,189.726051
78.100833,189.716372
78.282778,189.716372
78.44,189.697016
78.563333,189.697016
78.930556,189.697016
79.049722,189.658302
79.181111,189.658302
79.189444,189.658302
79.298611,189.658302
79.416667,189.648624
79.548333,189.648624
79.739167,189.648624
79.906667,189.638945
80.038889,189.638945
80.173611,189.619588
80.194722,189.619588
80.424444,189.619588
80.450278,189.619588
80.556389,189.60991
80.735833,189.60991
80.865,189.60991
80.983889,189.600232
81.124167,189.600232
81.26,189.580875
81.463333,189.580875
81.684722,189.561518
81.716111,189.561518
81.818056,189.55184
81.968056,189.55184
82.101667,189.542161
82.226389,189.532483
82.403333,189.522805
82.55,189.522805
82.730833,189.522805
82.743889,189.503448
82.928333,189.503448
82.9975,189.503448
83.065556,189.493769
83.196944,189.484091
83.330833,189.484091
83.461389,189.474413
83.664444,189.464734
83.795278,189.464734
83.932778,189.455056
84.049722,189.455056
84.191667,189.445377
84.326111,189.445377
84.334444,189.435699
84.451389,189.435699
84.643056,189.426021
84.792222,189.416342
85.151944,189.406664
85.334722,189.406664
85.424444,189.387307
85.566667,189.387307
85.637778,189.387307
85.739722,189.377629
85.885278,189.36795
86.02,189.36795
86.194722,189.358272
86.3325,189.348594
86.472222,189.348594
86.642222,189.348594
86.726667,189.329237
86.869722,189.329237
86.895833,189.329237
87.067778,189.319558
87.206389,189.30988
87.336111,189.300202
87.489722,189.300202
87.67,189.290523
87.837778,189.280845
87.931944,189.280845
87.990833,189.280845
88.100556,189.280845
88.203889,189.280845
88.219722,189.271166
88.384167,189.271166
88.535278,189.261488
88.750833,189.25181
88.924722,189.25181
89.069444,189.242131
89.185,189.232453
89.212778,189.232453
89.290833,189.232453
89.435833,189.222775
89.476667,189.222775
89.741111,189.213096
89.876389,189.213096
90.033889,189.193739
90.164722,189.193739
90.430278,189.184061
90.488056,189.184061
90.561111,189.174383
90.740833,189.174383
90.749167,189.164704
91.044167,189.164704
91.216944,189.155026
91.350833,189.145347
91.565278,189.135669
91.7425,189.135669
91.748056,189.125991
91.899444,189.125991
91.998333,189.125991
92.048056,189.116312
92.21,189.106634
92.3475,189.096955
92.479722,189.087277
92.658611,189.087277
92.793611,189.077599
92.947222,189.077599
93.034444,189.077599
93.103889,189.077599
93.265556,189.06792
93.306389,189.06792
93.418056,189.06792
93.651944,189.058242
93.797778,189.048564
93.953056,189.048564
94.094167,189.038885
94.27,189.029207
94.319722,189.029207
94.384444,189.029207
94.613056,189.029207
94.732778,189.019528
94.906111,189.019528
95.111389,189.000172
95.2725,188.990493
95.419722,188.990493
95.618889,188.990493
95.623889,188.980815
95.7675,188.971136
95.907778,188.971136
95.923889,188.971136
96.060833,188.971136
96.331667,188.961458
96.658611,188.95178
96.781944,188.961458
96.891389,188.961458
96.915556,188.961458
97.026111,188.95178
97.161944,188.961458
97.183056,188.961458
97.316944,188.95178
97.462778,188.95178
97.638056,188.95178
97.793611,188.942101
97.952778,188.942101
98.150556,188.942101
98.193333,188.942101
98.315278,188.932423
98.444167,188.932423
98.472778,188.922745
98.795833,188.903388
98.796111,188.903388
98.964444,188.903388
99.342222,188.893709
99.459444,188.893709
99.478611,188.884031
99.671944,188.884031
99.7425,188.884031
99.826944,188.874353
100.151111,188.864674
100.291111,188.864674
100.474167,188.854996
100.693333,188.845317
100.7475,188.845317
100.875,188.845317
101.008333,188.845317
101.042222,188.845317
101.254167,188.825961
101.393889,188.816282
101.537222,188.806604
101.868333,188.796925
101.98,188.796925
102.025833,188.796925
102.104167,188.787247
102.248333,188.787247
102.287778,188.787247
102.36,188.777569
102.520833,188.777569
102.7025,188.76789
102.863056,188.76789
103.116111,188.758212
103.23,188.748534
103.289722,188.748534
103.364444,188.748534
103.511389,188.738855
103.555833,188.738855
103.698056,188.738855
103.871111,188.729177
103.982222,188.729177
104.125556,188.719498
104.254722,188.719498
104.400833,188.719498
104.550833,188.719498
104.619167,188.719498
104.724167,188.700142
104.859722,188.700142
104.876667,188.700142
105.138056,188.690463
105.2625,188.690463
105.3975,188.680785
105.508333,188.680785
105.683333,188.680785
105.807778,188.671106
105.899167,188.671106
105.958889,188.671106
106.150833,188.661428
106.171944,188.661428
106.3175,188.661428
106.452778,188.661428
106.631944,188.661428
106.826944,188.642071
106.974722,188.642071
107.107222,188.632393
107.181667,188.632393
107.255556,188.632393
107.41,188.632393
107.445556,188.632393
107.528056,188.613036
107.729167,188.613036
107.860833,188.613036
107.997778,188.603358
108.254444,188.603358
108.3725,188.603358
108.448889,188.603358
108.518889,188.603358
108.681389,188.603358
108.703333,188.603358
108.815833,188.593679
108.960833,188.593679
109.083889,188.584001
109.224167,188.584001
109.360556,188.584001
109.503333,188.574323
109.697222,188.574323
109.715,188.574323
109.856389,188.574323
109.98,188.574323
109.984167,188.564644
110.250278,188.564644
110.385556,188.554966
110.499444,188.554966
110.859444,188.535609
111.001944,188.535609
111.006111,188.535609
111.276944,188.535609
111.289167,188.525931
111.375,188.525931
111.543889,188.516252
111.731667,188.516252
111.868333,188.516252
111.973611,188.516252
112.109444,188.506574
112.252222,188.496895
112.293056,188.496895
112.393333,188.496895
112.493333,188.496895
112.700278,188.46786
112.843611,188.458182
112.967778,188.448504
113.099167,188.438825
113.245556,188.429147
113.373889,188.419468
113.523889,188.419468
113.726667,188.40979
113.873056,188.400112
114.17,188.390433
114.348056,188.380755
114.485278,188.371076
114.673611,188.371076
114.819722,188.361398
114.9675,188.35172
115.157778,188.35172
115.305833,188.342041
115.4475,188.332363
115.668889,188.332363
115.806944,188.322685
115.9675,188.322685
116.081111,188.313006
116.2125,188.303328
116.363333,188.313006
116.475833,188.303328
116.693056,188.293649
116.813333,188.283971
116.985,188.283971
117.210556,188.274293
117.381667,188.264614
117.564444,188.254936
117.790278,188.254936
117.956111,188.245257
118.241111,188.245257
118.417778,188.235579
118.527222,188.235579
118.756667,188.225901
118.855,188.225901
118.990278,188.225901
119.129167,188.216222
119.270278,188.216222
119.4325,188.206544
119.6875,188.206544
119.844722,188.206544
120.014444,188.196865
120.144167,188.196865
120.263611,188.187187
120.418333,188.187187
120.568889,188.187187
120.762222,188.177509
120.921111,188.177509
121.080278,188.16783
121.203611,188.16783
121.348056,188.16783
121.477222,188.158152
121.818333,188.148474
121.950556,188.148474
122.355833,188.138795
122.499444,188.129117
122.808611,188.119438
122.965556,188.10976
123.240556,188.10976
123.408889,188.100082
123.553333,188.100082
123.723611,188.090403
123.878333,188.090403
124.035556,188.090403
124.261944,188.080725
124.668333,188.061368
124.823333,188.061368
125.007778,188.05169
125.278333,188.042011
125.383889,188.042011
125.538333,188.032333
125.703333,188.032333
125.851944,188.022655
126.138611,188.022655
126.249722,188.022655
126.378056,188.012976
126.547222,188.012976
126.726667,188.003298
126.864722,188.003298
127.039722,188.003298
127.240833,187.983941
127.389167,187.983941
127.571944,187.983941
127.767222,187.974263
127.890833,187.974263
128.0425,187.964584
128.211389,187.954906
128.4925,187.954906
128.651944,187.945227
128.843889,187.935549
128.9775,187.935549
129.135833,187.925871
129.288333,187.925871
129.430278,187.925871
129.549722,187.916192
129.738056,187.925871
129.871111,187.916192
129.980278,187.916192
130.130556,187.906514
130.264444,187.906514
130.383889,187.906514
130.527222,187.906514
130.715556,187.896835
131.080278,187.887157
131.222222,187.887157
131.344444,187.887157
131.484444,187.887157
131.801389,187.877479
131.951111,187.877479
132.091389,187.8678
132.204722,187.8678
132.346667,187.858122
132.479167,187.8678
132.654722,187.848444
132.798333,187.848444
133.213889,187.838765
133.378056,187.838765
133.516944,187.829087
133.853611,187.829087
133.992778,187.819408
134.120556,187.819408
134.252222,187.819408
134.392778,187.819408
134.720833,187.80973
134.897222,187.800052
135.013333,187.80973
135.156111,187.80973
135.430278,187.800052
135.563056,187.790373
135.71,187.780695
135.9125,187.780695
136.073611,187.771016
136.345556,187.771016
136.470833,187.771016
136.834722,187.761338
136.957222,187.761338
137.088889,187.75166
137.206944,187.75166
137.358056,187.75166
137.475556,187.741981
137.558056,187.741981
137.728056,187.741981
137.873333,187.732303
137.992222,187.732303
138.174167,187.732303
