time,pressure
0.0,30.114783
2.0,25.662724
4.0,22.952777
6.0,20.726747
8.0,18.597502
10.0,16.27469
12.0,14.822932
14.0,13.661525
16.0,12.693686
18.0,11.919415
20.0,11.241928
22.0,10.854793
24.0,10.467657
26.0,10.177305
28.0,10.080522
30.0,10.080522
32.0,10.177305
34.0,10.274089
36.0,10.274089
38.0,10.370873
40.0,10.564441
42.0,10.758009
44.0,10.854793
46.0,10.758009
48.0,10.758009
50.0,10.854793
52.0,10.951576
54.0,10.951576
56.0,10.951576
58.0,10.951576
60.0,11.04836
62.0,11.04836
64.0,10.951576
66.0,10.951576
68.0,10.951576
70.0,10.951576
72.0,10.951576
74.0,10.951576
76.0,10.854793
78.0,10.951576
80.0,10.951576
82.0,10.951576
84.0,10.854793
86.0,10.854793
88.0,10.758009
90.0,10.758009
92.0,10.758009
94.0,10.661225
96.0,10.661225
98.0,10.564441
100.0,10.564441
102.0,10.564441
104.0,10.564441
106.0,10.564441
108.0,10.564441
110.0,10.564441
112.0,10.564441
114.0,10.564441
116.0,10.564441
118.0,10.564441
120.0,10.564441
122.0,10.564441
124.0,10.564441
126.0,10.564441
128.0,10.467657
130.0,10.467657
132.0,10.467657
134.0,10.370873
136.0,10.370873
138.0,10.370873
140.0,10.370873
142.0,10.370873
144.0,10.370873
146.0,10.370873
148.0,10.370873
150.0,10.370873
152.0,10.370873
154.0,10.370873
156.0,10.274089
158.0,10.370873
160.0,10.274089
162.0,10.274089
164.0,10.274089
166.0,10.274089
168.0,10.274089
170.0,10.274089
172.0,10.177305
174.0,10.177305
176.0,10.177305
178.0,10.177305
180.0,10.177305
182.0,10.177305
184.0,10.177305
186.0,10.177305
188.0,10.177305
190.0,10.177305
192.0,10.177305
194.0,10.177305
196.0,10.177305
198.0,10.177305
200.0,10.177305
202.0,10.177305
204.0,10.177305
206.0,10.177305
208.0,10.177305
210.0,10.080522
212.0,10.177305
214.0,10.080522
216.0,10.177305
218.0,10.080522
220.0,10.080522
222.0,10.080522
224.0,10.080522
226.0,10.080522
228.0,10.080522
230.0,10.080522
232.0,10.080522
234.0,10.080522
236.0,10.080522
238.0,10.080522
240.0,10.080522
242.0,10.080522
244.0,10.080522
246.0,10.080522
248.0,10.080522
250.0,10.080522
252.0,10.080522
254.0,9.983738
256.0,10.080522
258.0,9.983738
260.0,9.983738
262.0,9.983738
264.0,9.983738
266.0,9.983738
268.0,9.983738
270.0,9.983738
272.0,9.983738
274.0,9.983738
276.0,9.983738
278.0,9.983738
280.0,9.983738
282.0,9.983738
284.0,9.983738
286.0,9.983738
288.0,9.983738
290.0,9.983738
292.0,9.983738
294.0,9.983738
296.0,9.983738
298.0,9.983738
300.0,9.983738
302.0,9.983738
304.0,9.983738
306.0,9.983738
308.0,9.983738
310.0,9.983738
312.0,9.983738
314.0,9.983738
316.0,9.983738
318.0,9.983738
320.0,9.983738
322.0,9.983738
324.0,9.983738
326.0,9.983738
328.0,9.983738
330.0,9.983738
332.0,9.983738
334.0,10.080522
336.0,10.080522
338.0,10.080522
340.0,10.080522
342.0,10.080522
344.0,10.080522
346.0,10.080522
348.0,10.080522
350.0,10.080522
352.0,10.080522
354.0,10.080522
356.0,10.080522
358.0,9.983738
360.0,9.983738
362.0,9.983738
364.0,9.983738
366.0,9.983738
368.0,10.080522
370.0,9.983738
372.0,10.080522
374.0,10.080522
376.0,10.080522
378.0,10.080522
380.0,10.080522
382.0,10.080522
384.0,10.080522
386.0,10.080522
388.0,10.080522
390.0,10.080522
392.0,10.080522
394.0,10.080522
396.0,10.080522
398.0,10.080522
400.0,10.080522
402.0,10.080522
404.0,10.080522
406.0,10.080522
408.0,10.080522
410.0,10.080522
412.0,10.080522
414.0,10.080522
416.0,10.080522
418.0,10.080522
420.0,10.080522
422.0,10.080522
424.0,10.080522
426.0,10.177305
428.0,10.080522
430.0,10.080522
432.0,10.080522
434.0,10.080522
436.0,10.080522
438.0,10.080522
440.0,10.080522
442.0,10.177305
444.0,10.080522
446.0,10.080522
448.0,10.080522
450.0,10.177305
452.0,10.177305
454.0,10.080522
456.0,10.080522
458.0,10.177305
460.0,10.080522
462.0,10.177305
464.0,10.177305
466.0,10.177305
468.0,10.177305
470.0,10.177305
472.0,10.177305
474.0,10.177305
476.0,10.177305
478.0,10.177305
480.0,10.177305
482.0,10.080522
484.0,10.080522
486.0,10.177305
488.0,10.177305
490.0,10.177305
492.0,10.177305
494.0,10.177305
496.0,10.177305
498.0,10.177305
500.0,10.177305
502.0,10.177305
504.0,10.177305
506.0,10.177305
508.0,10.177305
510.0,10.177305
512.0,10.177305
514.0,10.177305
516.0,10.177305
518.0,10.177305
520.0,10.274089
522.0,10.274089
524.0,10.177305
526.0,10.177305
528.0,10.177305
530.0,10.177305
532.0,10.177305
534.0,10.177305
536.0,10.177305
538.0,10.177305
540.0,10.177305
542.0,10.274089
544.0,10.177305
546.0,10.274089
548.0,10.177305
550.0,10.177305
552.0,10.177305
554.0,10.177305
556.0,10.177305
558.0,10.177305
560.0,10.274089
562.0,10.274089
564.0,10.274089
568.0,10.274089
570.0,10.274089
572.0,10.274089
574.0,10.274089
576.0,10.274089
578.0,10.274089
580.0,10.274089
582.0,10.274089
584.0,10.274089
586.0,10.274089
588.0,10.274089
590.0,10.274089
592.0,10.274089
594.0,10.370873
596.0,10.274089
598.0,10.274089
600.0,10.274089
602.0,10.274089
604.0,10.274089
606.0,10.274089
608.0,10.274089
610.0,10.274089
612.0,10.274089
614.0,10.274089
616.0,10.274089
618.0,10.274089
620.0,10.274089
622.0,10.274089
624.0,10.274089
626.0,10.274089
628.0,10.274089
632.0,10.274089
634.0,10.274089
636.0,10.274089
638.0,10.274089
640.0,10.274089
642.0,10.274089
644.0,10.274089
646.0,10.274089
648.0,10.274089
650.0,10.274089
652.0,10.274089
654.0,10.274089
656.0,10.274089
658.0,10.274089
660.0,10.274089
662.0,10.274089
664.0,10.274089
666.0,10.274089
668.0,10.274089
670.0,10.274089
672.0,10.274089
674.0,10.274089
676.0,10.274089
680.0,10.274089
682.0,10.274089
684.0,10.274089
686.0,10.274089
688.0,10.274089
690.0,10.274089
692.0,10.274089
694.0,10.274089
696.0,10.274089
698.0,10.274089
700.0,10.274089
702.0,10.274089
704.0,10.274089
706.0,10.274089
708.0,10.274089
710.0,10.274089
712.0,10.274089
716.0,10.274089
718.0,10.274089
720.0,10.177305
722.0,10.274089
724.0,10.274089
726.0,10.274089
728.0,10.274089
730.0,10.274089
732.0,10.274089
734.0,10.274089
736.0,10.274089
738.0,10.274089
740.0,10.274089
742.0,10.274089
744.0,10.274089
746.0,10.274089
748.0,10.370873
750.0,10.274089
752.0,10.370873
754.0,10.274089
756.0,10.274089
758.0,10.370873
760.0,10.370873
764.0,10.274089
766.0,10.274089
768.0,10.274089
770.0,10.274089
776.0,10.370873
778.0,10.370873
780.0,10.274089
782.0,10.370873
784.0,10.274089
786.0,10.370873
788.0,10.370873
792.0,10.274089
794.0,10.274089
798.0,10.274089
800.0,10.274089
804.0,10.274089
806.0,10.274089
808.0,10.274089
810.0,10.274089
812.0,10.274089
814.0,10.370873
818.0,10.274089
820.0,10.274089
822.0,10.274089
824.0,10.370873
826.0,10.370873
828.0,10.370873
830.0,10.370873
832.0,10.370873
834.0,10.370873
836.0,10.370873
838.0,10.370873
840.0,10.370873
842.0,10.370873
844.0,10.274089
846.0,10.177305
848.0,10.274089
850.0,10.370873
852.0,10.370873
854.0,10.370873
856.0,10.370873
858.0,10.467657
860.0,10.370873
862.0,10.370873
864.0,10.370873
866.0,10.370873
868.0,10.370873
870.0,10.370873
872.0,10.467657
874.0,10.370873
876.0,10.467657
878.0,10.467657
880.0,10.467657
882.0,10.467657
884.0,10.467657
886.0,10.467657
888.0,10.370873
890.0,10.467657
892.0,10.467657
894.0,10.467657
896.0,10.467657
898.0,10.467657
900.0,10.467657
902.0,10.467657
904.0,10.467657
906.0,10.467657
908.0,10.467657
910.0,10.370873
912.0,10.370873
914.0,10.370873
928.0,10.370873
930.0,10.370873
932.0,10.370873
934.0,10.274089
936.0,10.274089
938.0,10.274089
940.0,10.274089
942.0,10.274089
944.0,10.370873
946.0,10.370873
948.0,10.370873
950.0,10.370873
952.0,10.370873
954.0,10.370873
956.0,10.370873
958.0,10.274089
960.0,10.274089
962.0,10.274089
964.0,10.370873
966.0,10.370873
968.0,10.370873
970.0,10.370873
972.0,10.370873
974.0,10.370873
976.0,10.370873
978.0,10.370873
980.0,10.274089
982.0,10.370873
984.0,10.370873
986.0,10.370873
988.0,10.274089
990.0,10.370873
992.0,10.370873
994.0,10.370873
996.0,10.370873
998.0,10.370873
1000.0,10.370873
1002.0,10.370873
1004.0,10.274089
1006.0,10.177305
1008.0,10.274089
1010.0,10.370873
1012.0,10.370873
1014.0,10.370873
1016.0,10.370873
1018.0,10.467657
1020.0,10.467657
1022.0,10.467657
1024.0,10.370873
1026.0,10.370873
1028.0,10.370873
1030.0,10.370873
1032.0,10.370873
1034.0,10.370873
1036.0,10.467657
1038.0,10.467657
1040.0,10.467657
1044.0,10.467657
1046.0,10.467657
1048.0,10.467657
1050.0,10.467657
1052.0,10.467657
1054.0,10.467657
1056.0,10.370873
1060.0,10.467657
1062.0,10.370873
1064.0,10.467657
1066.0,10.467657
1068.0,10.467657
1070.0,10.467657
1072.0,10.467657
1074.0,10.467657
1076.0,10.467657
1078.0,10.467657
1080.0,10.467657
1082.0,10.467657
1084.0,10.467657
1086.0,10.467657
1088.0,10.467657
1090.0,10.467657
1092.0,10.467657
1094.0,10.467657
1096.0,10.467657
1098.0,10.564441
1100.0,10.564441
1102.0,10.467657
1104.0,10.467657
1106.0,10.467657
1108.0,10.467657
1110.0,10.467657
1112.0,10.467657
1114.0,10.564441
1116.0,10.564441
1118.0,10.564441
1120.0,10.564441
1122.0,10.467657
1124.0,10.564441
1126.0,10.564441
1128.0,10.467657
1130.0,10.467657
1132.0,10.467657
1134.0,10.467657
1136.0,10.564441
1138.0,10.564441
1140.0,10.564441
1142.0,10.564441
1144.0,10.564441
1146.0,10.564441
1148.0,10.564441
1150.0,10.467657
1152.0,10.467657
1154.0,10.467657
1156.0,10.564441
1158.0,10.564441
1160.0,10.564441
1162.0,10.564441
1166.0,10.564441
1168.0,10.564441
1170.0,10.564441
1172.0,10.564441
1174.0,10.467657
1176.0,10.467657
1178.0,10.564441
1180.0,10.564441
1182.0,10.564441
1184.0,10.564441
1186.0,10.564441
1188.0,10.564441
1190.0,10.564441
1192.0,10.564441
1194.0,10.564441
1196.0,10.564441
1198.0,10.564441
1200.0,10.564441
1202.0,10.564441
1204.0,10.564441
1206.0,10.564441
1208.0,10.564441
1210.0,10.564441
1212.0,10.564441
1214.0,10.564441
1216.0,10.564441
1218.0,10.564441
1220.0,10.467657
1222.0,10.467657
1224.0,10.467657
1226.0,10.467657
1228.0,10.467657
1230.0,10.564441
1232.0,10.564441
1234.0,10.564441
1236.0,10.564441
1238.0,10.564441
1242.0,10.564441
1244.0,10.564441
1246.0,10.564441
1248.0,10.564441
1250.0,10.564441
1252.0,10.564441
1254.0,10.564441
1256.0,10.661225
1258.0,10.564441
1260.0,10.564441
1262.0,10.661225
1264.0,10.661225
1266.0,10.661225
1274.0,10.467657
1276.0,10.467657
1278.0,10.467657
1280.0,10.467657
1282.0,10.467657
1284.0,10.467657
1286.0,10.467657
1288.0,10.467657
1290.0,10.467657
1292.0,10.467657
1294.0,10.467657
1296.0,10.467657
1298.0,10.370873
1300.0,10.467657
1302.0,10.467657
1304.0,10.467657
1306.0,10.467657
1308.0,10.467657
1310.0,10.467657
1312.0,10.467657
1314.0,10.467657
1316.0,10.467657
1318.0,10.467657
1320.0,10.467657
1322.0,10.467657
1324.0,10.370873
1326.0,10.467657
1328.0,10.467657
1330.0,10.467657
1332.0,10.467657
1334.0,10.467657
1336.0,10.467657
1338.0,10.467657
1340.0,10.467657
1342.0,10.467657
1344.0,10.467657
1346.0,10.467657
1348.0,10.467657
1350.0,10.467657
1352.0,10.564441
1354.0,10.467657
1356.0,10.467657
1358.0,10.467657
1360.0,10.467657
1362.0,10.467657
1364.0,10.467657
1366.0,10.467657
1368.0,10.467657
1380.0,10.467657
1382.0,10.467657
1384.0,10.467657
1386.0,10.467657
1388.0,10.467657
1390.0,10.370873
1392.0,10.274089
1394.0,10.370873
1396.0,10.467657
1398.0,10.177305
1424.0,10.467657
1426.0,10.758009
1428.0,10.758009
1430.0,10.661225
1432.0,10.661225
1434.0,10.661225
1436.0,10.370873
1438.0,10.467657
1440.0,10.564441
1442.0,10.661225
1444.0,10.661225
1446.0,10.661225
1448.0,10.661225
1450.0,10.661225
1452.0,10.661225
1454.0,10.661225
1456.0,10.661225
1458.0,10.661225
1460.0,10.661225
1462.0,10.661225
1464.0,10.661225
1466.0,10.661225
1468.0,10.661225
1470.0,10.661225
1472.0,10.661225
1474.0,10.661225
1476.0,10.661225
1478.0,10.661225
1480.0,10.661225
1482.0,10.661225
1484.0,10.661225
1486.0,10.661225
1488.0,10.661225
1490.0,10.661225
1492.0,10.661225
1494.0,10.661225
1496.0,10.661225
1498.0,10.661225
1500.0,10.661225
1502.0,10.661225
1504.0,10.758009
1506.0,10.661225
1508.0,10.661225
1510.0,10.661225
1512.0,10.661225
1514.0,10.564441
1516.0,10.564441
1518.0,10.661225
1520.0,10.661225
1522.0,10.661225
1524.0,10.661225
1526.0,10.564441
1528.0,10.661225
1530.0,10.564441
1532.0,10.564441
1534.0,10.564441
1536.0,10.564441
1538.0,10.564441
1540.0,10.564441
1542.0,10.564441
1544.0,10.564441
1546.0,10.564441
1548.0,10.564441
1550.0,10.564441
1552.0,10.564441
1554.0,10.564441
1556.0,10.564441
1558.0,10.564441
1560.0,10.564441
1562.0,10.564441
1564.0,10.564441
1566.0,10.564441
1568.0,10.564441
1570.0,10.661225
1572.0,10.661225
1574.0,10.661225
1576.0,10.661225
1578.0,10.564441
1580.0,10.564441
1582.0,10.564441
1584.0,10.564441
1586.0,10.564441
1588.0,10.564441
1590.0,10.564441
1592.0,10.564441
1594.0,10.564441
1596.0,10.564441
1598.0,10.564441
1600.0,10.564441
1602.0,10.564441
1604.0,10.564441
1606.0,10.564441
1608.0,10.564441
1610.0,10.564441
1612.0,10.564441
1614.0,10.564441
1616.0,10.661225
1618.0,10.661225
1620.0,10.661225
1622.0,10.661225
1624.0,10.661225
1626.0,10.661225
1628.0,10.661225
1630.0,10.661225
1632.0,10.661225
1634.0,10.661225
1636.0,10.661225
1638.0,10.661225
1640.0,10.661225
1642.0,10.661225
1644.0,10.661225
1646.0,10.661225
1648.0,10.661225
1650.0,10.661225
1652.0,10.661225
1654.0,10.661225
1656.0,10.661225
1658.0,10.661225
1660.0,10.564441
1662.0,10.661225
1664.0,10.564441
1666.0,10.661225
1668.0,10.661225
1670.0,10.661225
1672.0,10.564441
1674.0,10.564441
1676.0,10.564441
1678.0,10.564441
1680.0,10.564441
1682.0,10.564441
1684.0,10.564441
1686.0,10.661225
1688.0,10.564441
1690.0,10.661225
1692.0,10.661225
1694.0,10.661225
1696.0,10.661225
1698.0,10.661225
1700.0,10.661225
1702.0,10.564441
1704.0,10.564441
1706.0,10.564441
1708.0,10.564441
1710.0,10.564441
1712.0,10.564441
1714.0,10.564441
1716.0,10.564441
1718.0,10.564441
1720.0,10.564441
1722.0,10.661225
1724.0,10.661225
1726.0,10.564441
1728.0,10.564441
1730.0,10.564441
1732.0,10.661225
1734.0,10.661225
1736.0,10.661225
1738.0,10.661225
1740.0,10.661225
1742.0,10.661225
1744.0,10.661225
1746.0,10.661225
1748.0,10.661225
1750.0,10.661225
1752.0,10.661225
1754.0,10.661225
1756.0,10.661225
1758.0,10.661225
1760.0,10.661225
1762.0,10.661225
1764.0,10.661225
1766.0,10.661225
1768.0,10.661225
1770.0,10.661225
1772.0,10.661225
1774.0,10.661225
1776.0,10.661225
1778.0,10.661225
1780.0,10.661225
1782.0,10.661225
1784.0,10.661225
1786.0,10.661225
1788.0,10.661225
1790.0,10.661225
1792.0,10.661225
1794.0,10.661225
1796.0,10.661225
1798.0,10.661225
1800.0,10.661225
1802.0,10.661225
1804.0,10.661225
1806.0,10.661225
1808.0,10.661225
1810.0,10.661225
1812.0,10.661225
1814.0,10.661225
1816.0,10.564441
1818.0,10.661225
1820.0,10.661225
1822.0,10.564441
1824.0,10.564441
1826.0,10.564441
1828.0,10.564441
1830.0,10.564441
1832.0,10.564441
1834.0,10.564441
1836.0,10.564441
1838.0,10.564441
1840.0,10.564441
1842.0,10.564441
1844.0,10.467657
1846.0,10.564441
1848.016667,10.564441
1850.0,10.564441
1852.0,10.564441
1854.0,10.564441
1856.0,10.564441
1858.0,10.564441
1860.0,10.564441
1862.0,10.564441
1864.0,10.564441
1866.0,10.564441
1868.0,10.564441
1870.0,10.564441
1872.0,10.467657
1874.0,10.564441
1876.0,10.564441
1878.0,10.564441
1880.0,10.564441
1882.0,10.564441
1884.0,10.564441
1886.0,10.564441
1888.0,10.564441
1890.0,10.564441
1892.0,10.564441
1894.0,10.564441
1896.0,10.564441
1898.0,10.564441
1900.0,10.564441
1902.0,10.661225
1904.0,10.661225
1906.0,10.661225
1908.0,10.661225
1910.0,10.661225
1912.0,10.661225
1914.0,10.564441
1916.0,10.564441
1918.0,10.564441
1920.0,10.564441
1922.0,10.564441
1924.0,10.564441
1926.0,10.564441
1928.0,10.564441
1930.0,10.661225
1932.0,10.661225
1934.0,10.564441
1936.0,10.564441
1938.0,10.564441
1940.0,10.467657
1942.0,10.467657
1944.0,10.564441
1946.0,10.564441
1948.0,10.467657
1950.0,10.564441
1952.0,10.564441
1954.0,10.564441
1956.0,10.564441
1958.0,10.564441
1960.0,10.564441
1962.0,10.467657
1964.0,10.467657
1966.0,10.467657
1968.0,10.467657
1970.0,10.564441
1972.0,10.564441
1974.0,10.564441
1976.0,10.564441
1978.0,10.564441
1980.0,10.564441
1982.0,10.564441
1984.0,10.564441
1986.0,10.564441
1988.0,10.564441
1990.0,10.467657
1992.0,10.467657
1994.0,10.467657
1996.0,10.467657
1998.0,10.564441
2000.0,10.564441
2002.0,10.564441
2004.0,10.564441
2006.0,10.564441
2008.0,10.564441
2010.0,10.564441
2012.0,10.564441
2014.0,10.467657
2016.0,10.467657
2018.0,10.564441
2020.0,10.661225
2022.0,10.564441
2024.0,10.661225
2026.0,10.564441
2028.0,10.564441
2030.0,10.564441
2032.0,10.564441
2034.0,10.564441
2036.0,10.564441
2038.0,10.564441
2040.0,10.564441
2042.0,10.564441
2044.0,10.564441
2046.0,10.564441
2048.0,10.564441
2050.0,10.564441
2052.0,10.564441
2054.0,10.564441
2056.0,10.564441
2058.0,10.564441
2060.0,10.564441
2062.0,10.564441
2064.0,10.564441
2066.0,10.564441
2068.0,10.564441
2070.0,10.564441
2072.0,10.564441
2074.0,10.564441
2076.0,10.661225
2078.0,10.564441
2080.0,10.564441
2082.0,10.564441
2084.0,10.564441
2122.0,10.370873
2124.0,10.274089
2126.0,10.370873
2128.0,10.274089
2130.0,10.370873
2132.0,10.274089
2134.0,10.274089
2136.0,10.274089
2138.0,10.274089
2140.0,10.274089
2142.0,10.274089
2144.0,10.274089
2150.0,10.661225
2152.0,10.370873
2154.0,10.370873
2156.0,10.274089
2158.0,10.274089
2160.0,10.274089
2162.0,10.274089
2164.0,10.274089
2166.0,10.274089
2168.0,10.274089
2170.0,10.274089
2172.0,10.274089
2174.0,10.274089
2176.0,10.274089
2178.0,10.274089
2180.0,10.274089
2182.0,10.274089
2184.0,10.274089
2186.0,10.274089
2188.0,10.274089
2190.0,10.274089
2192.0,10.274089
2194.0,10.274089
2196.0,10.274089
2198.0,10.274089
2200.0,10.274089
2202.0,10.274089
2204.0,10.274089
2206.0,10.274089
2208.0,10.274089
2210.0,10.274089
2212.0,10.274089
2214.0,10.274089
2216.0,10.274089
2218.0,10.274089
2220.0,10.274089
2222.0,10.370873
2224.0,10.370873
2226.0,10.370873
2228.0,10.370873
2230.0,10.370873
2232.0,10.274089
2234.0,10.274089
2236.0,10.274089
2238.0,10.274089
2240.0,10.370873
2242.0,10.370873
2244.0,10.274089
2246.0,10.274089
2248.0,10.274089
2250.0,10.274089
2252.0,10.274089
2254.0,10.274089
2256.0,10.274089
2258.0,10.274089
2260.0,10.274089
2262.0,10.177305
2264.0,10.274089
2266.0,10.274089
2268.0,10.274089
2270.0,10.274089
2272.0,10.274089
2274.0,10.177305
2276.0,10.177305
2278.0,10.177305
2280.0,10.177305
2282.0,10.177305
2284.0,10.177305
2286.0,10.177305
2288.0,10.177305
2290.0,10.177305
2292.0,10.177305
2294.0,10.177305
2296.0,10.177305
2298.0,10.177305
2300.0,10.177305
2302.0,10.177305
2304.0,10.177305
2306.0,10.177305
2308.0,10.274089
2310.0,10.274089
2312.0,10.274089
2314.0,10.274089
2316.0,10.274089
2318.0,10.274089
2320.0,10.274089
2322.0,10.274089
2324.0,10.274089
2326.0,10.274089
2328.0,10.274089
2330.0,10.274089
2332.0,10.274089
2334.0,10.274089
2336.0,10.177305
2338.0,10.177305
2340.0,10.177305
2342.0,10.274089
2344.0,10.177305
2346.0,10.177305
2348.0,10.177305
2350.0,10.177305
2352.0,10.177305
2354.0,10.177305
2356.0,10.177305
2358.0,10.177305
2360.0,10.177305
2362.0,10.177305
2364.0,10.177305
2366.0,10.177305
2368.0,10.177305
2370.0,10.177305
2372.0,10.177305
2374.0,10.177305
2376.0,10.177305
2378.0,10.177305
2380.0,10.177305
2382.0,10.177305
2384.0,10.177305
2386.0,10.177305
2388.0,10.177305
2390.0,10.177305
2392.0,10.274089
2394.0,10.177305
2396.0,10.177305
2398.0,10.177305
2400.0,10.177305
2402.0,10.177305
2404.0,10.177305
2406.0,10.274089
2408.0,10.274089
2410.0,10.274089
2412.0,10.274089
2414.0,10.274089
2416.0,10.274089
2418.0,10.177305
2420.0,10.177305
2422.0,10.177305
2424.0,10.177305
2426.0,10.177305
2428.0,10.177305
2430.0,10.177305
2432.0,10.274089
2434.0,10.177305
2436.0,10.177305
2438.0,10.177305
2440.0,10.177305
2442.0,10.177305
2444.0,10.177305
2446.0,10.177305
2448.0,10.177305
2450.0,10.177305
2452.0,10.177305
2454.0,10.177305
2456.0,10.177305
2458.0,10.274089
2460.0,10.177305
2462.0,10.177305
2464.0,10.177305
2466.0,10.177305
2468.0,10.177305
2470.0,9.983738
2472.0,9.983738
2474.0,10.080522
2476.0,10.177305
2478.0,10.177305
2480.0,10.177305
2482.0,10.177305
2484.0,10.177305
2486.0,10.177305
2488.0,10.177305
2490.0,10.177305
2492.0,10.177305
2494.0,10.177305
2496.0,10.177305
2498.0,10.177305
2500.0,10.177305
2502.0,10.177305
2504.0,10.177305
2506.0,10.177305
2508.0,10.274089
2510.0,10.177305
2512.0,10.177305
2514.0,10.177305
2516.0,10.177305
2518.0,10.177305
2520.0,10.177305
2522.0,10.177305
2524.0,10.177305
2526.0,10.177305
2528.0,10.177305
2530.0,10.177305
2532.0,10.177305
2534.0,10.177305
2536.0,10.274089
2538.0,10.177305
