time,pressure
0.0,271.203305
0.116667,269.703155
0.25,269.103095
0.416667,265.203673
0.916667,252.00332
1.416667,241.902955
1.916667,233.703426
2.416667,225.303554
2.916667,220.503074
3.416667,215.003814
3.916667,209.702961
4.416667,206.103569
4.916667,201.903149
5.416667,199.203847
5.916667,196.503577
6.416667,194.203024
6.916667,193.003872
7.416667,190.303602
7.916667,188.803452
10.416667,179.20346
10.916667,177.802997
11.416667,176.703532
11.916667,175.503412
12.416667,174.40298
12.916667,173.503858
13.416667,172.403425
13.916667,171.603022
14.416667,170.803587
14.916667,169.603467
15.416667,168.103317
15.916667,166.603167
16.416667,165.30336
16.916667,164.10324
17.416667,162.102717
17.916667,160.20285
18.416667,159.60279
19.75,156.403115
23.083333,145.503316
23.583333,144.402883
24.083333,142.902733
24.583333,141.703581
25.083333,140.503461
25.583333,138.703281
26.083333,137.203131
26.583333,135.502638
27.083333,134.202831
27.583333,132.503306
28.083333,131.003156
28.583333,129.902723
29.083333,128.503228
29.583333,126.703048
30.083333,125.303554
30.583333,124.302808
31.083333,122.702971
31.583333,122.203566
34.75,116.502996
35.25,116.303621
35.75,115.602906
36.25,114.903159
36.75,114.503441
37.25,114.303099
46.5,108.703184
47.0,108.603497
47.5,108.403154
48.0,107.703407
48.5,107.403377
49.0,107.203034
49.5,102.602896
50.0,103.103269
50.5,103.403299
51.0,103.903672
51.5,104.303389
52.0,104.603419
52.5,105.003136
53.0,105.203479
53.5,105.303166
54.0,105.503509
54.5,105.702884
55.0,108.303467
58.916667,117.403086
59.416667,117.003369
59.916667,116.803026
60.416667,116.502996
60.916667,116.303621
61.75,114.203411
62.25,113.802726
62.75,113.203634
63.25,112.703261
63.75,112.403231
64.25,112.003514
64.75,111.602829
65.25,111.203111
65.75,110.803394
66.25,110.503364
66.75,110.402709
67.25,110.303021
70.583333,113.102979
71.083333,113.102979
71.583333,112.003514
72.083333,112.802949
72.583333,112.502919
73.083333,112.403231
73.583333,112.202889
74.083333,112.202889
74.583333,111.803171
75.083333,111.503141
75.583333,111.103424
76.083333,110.503364
76.583333,109.903304
77.083333,106.903004
77.583333,104.502764
78.083333,103.403299
78.583333,103.103269
79.083333,104.103046
79.583333,108.703184
84.416667,105.603196
84.916667,105.603196
85.416667,116.003591
85.916667,115.803249
86.416667,115.602906
86.916667,115.403531
87.416667,115.203189
87.916667,115.002846
88.416667,114.903159
88.916667,114.702816
89.416667,114.603129
89.916667,114.402786
90.416667,114.303099
90.916667,114.203411
91.416667,114.102756
97.416667,110.402709
97.916667,110.103647
98.916667,109.903304
99.416667,109.803617
99.916667,109.603274
100.416667,109.803617
100.916667,109.702961
101.416667,109.702961
101.916667,109.903304
102.416667,109.803617
107.583333,109.803617
108.083333,109.803617
108.583333,109.803617
109.083333,109.702961
109.416667,105.803539
109.916667,106.203256
110.416667,106.602974
110.916667,107.003659
111.416667,107.203034
111.916667,108.003437
112.416667,108.603497
112.916667,109.402931
113.416667,110.702739
113.916667,113.403009
114.416667,114.503441
114.583333,107.403377
114.916667,115.002846
115.416667,115.302876
118.916667,106.703629
119.416667,106.503286
119.916667,106.503286
120.416667,106.302944
120.916667,106.302944
121.416667,106.103569
122.416667,106.002914
122.916667,105.702884
123.416667,105.402854
123.916667,105.203479
124.416667,105.003136
124.916667,104.802794
125.416667,104.703106
125.916667,104.502764
126.416667,104.403076
126.916667,104.202734
127.416667,104.103046
131.25,102.302866
131.75,102.103492
132.25,101.903149
132.75,101.803462
133.25,101.803462
133.583333,109.603274
134.083333,109.503587
134.583333,109.203557
135.083333,109.003214
135.583333,108.802871
136.083333,108.802871
136.583333,108.303467
137.083333,108.103124
137.583333,107.902781
138.083333,107.602751
138.916667,98.803162
141.916667,95.303457
142.916667,95.502832
144.916667,96.102892
145.416667,96.503577
145.916667,96.803607
146.416667,97.002982
147.416667,97.103637
148.333333,97.803384
154.633333,170.40387
154.916667,165.90342
155.416667,159.60279
155.916667,157.003175
156.416667,158.10264
156.916667,158.7027
157.416667,154.402593
157.916667,149.30305
158.416667,144.402883
158.916667,139.202685
159.416667,135.203576
159.916667,132.602993
160.416667,130.303408
160.916667,128.703571
161.416667,127.603138
161.916667,126.802736
162.416667,126.403018
162.916667,125.903614
163.416667,125.003524
167.083333,121.003446
167.583333,120.002701
168.083333,119.203266
168.583333,118.102834
169.083333,117.303399
169.583333,116.202966
170.083333,115.503219
170.583333,113.903381
171.083333,113.003291
171.583333,112.403231
172.083333,111.803171
172.583333,111.302799
173.083333,110.903081
173.583333,110.702739
174.083333,110.603051
174.583333,110.603051
175.083333,110.603051
175.583333,110.603051
178.416667,110.603051
178.916667,110.603051
179.416667,110.603051
179.916667,110.503364
180.416667,111.403454
180.916667,114.503441
192.416667,108.903527
192.916667,108.603497
193.416667,108.502841
193.916667,108.403154
194.416667,108.202811
194.916667,108.003437
195.416667,107.803094
196.583333,110.603051
197.083333,110.002991
197.583333,110.002991
198.083333,110.603051
198.583333,111.703484
199.083333,112.903604
202.916667,112.003514
203.916667,111.503141
205.416667,116.202966
205.916667,113.703039
206.416667,113.003291
206.916667,112.502919
207.0,109.503587
207.416667,112.303544
207.916667,113.303321
208.416667,109.303244
216.083333,108.802871
216.583333,108.703184
217.083333,108.003437
217.583333,108.202811
218.083333,108.103124
218.583333,108.502841
219.083333,108.202811
219.583333,107.203034
220.083333,106.403599
220.583333,105.102824
221.083333,104.003359
221.583333,103.003582
222.083333,101.903149
222.583333,101.203402
223.083333,100.503654
223.583333,99.903594
227.416667,99.703252
229.416667,99.603564
231.416667,99.703252
233.85,100.003282
238.583333,101.303089
239.083333,101.303089
239.583333,101.203402
240.083333,101.203402
240.583333,101.102746
241.083333,101.003059
241.583333,100.903372
242.083333,100.303312
242.583333,99.802939
243.083333,99.802939
243.583333,100.102969
244.083333,100.603342
244.583333,101.402776
245.083333,101.303089
245.583333,101.003059
252.5,100.503654
253.0,100.503654
253.5,100.503654
254.0,100.603342
254.5,100.703029
255.0,100.803684
255.5,100.803684
256.0,100.903372
256.5,100.903372
257.0,100.803684
257.5,100.803684
258.0,100.803684
258.5,100.703029
259.0,100.603342
259.5,100.603342
263.416667,99.903594
263.916667,99.802939
265.416667,100.003282
265.916667,99.903594
266.416667,100.003282
266.916667,100.102969
267.416667,100.203624
267.916667,100.303312
268.416667,100.402999
268.916667,100.402999
269.416667,100.603342
269.916667,100.703029
275.416667,100.503654
276.416667,100.402999
277.416667,100.303312
278.416667,100.203624
279.416667,100.203624
280.416667,100.102969
280.916667,100.203624
281.416667,100.303312
281.916667,100.303312
282.416667,100.503654
282.916667,101.003059
289.416667,100.803684
290.416667,100.903372
291.416667,100.903372
292.416667,100.903372
292.916667,100.903372
293.416667,100.703029
294.416667,100.402999
295.416667,100.402999
299.416667,100.303312
300.416667,100.303312
301.416667,100.402999
302.416667,100.503654
303.416667,100.603342
304.416667,100.402999
305.416667,100.303312
306.416667,100.402999
310.416667,100.903372
310.916667,100.903372
311.416667,100.903372
311.916667,100.903372
312.416667,100.903372
312.916667,100.903372
313.416667,100.903372
314.416667,101.003059
315.416667,100.903372
325.416667,101.003059
349.416667,101.003059
373.416667,101.003059
397.416667,101.003059
421.416667,101.003059
445.416667,101.063065
469.416667,101.003059
493.416667,101.003059
517.416667,100.903372
541.416667,100.903372
565.416667,101.003059
589.416667,100.903372
613.416667,100.903372
637.416667,101.003059
661.416667,101.003059
685.416667,102.002836
709.416667,104.003359
733.416667,104.003359
757.416667,104.003359
781.416667,104.003359
805.416667,101.303089
829.416667,101.003059
853.416667,101.803462
877.416667,102.002836
901.416667,101.003059
925.416667,101.003059
949.416667,101.003059
973.416667,101.003059
997.416667,102.002836
