time,pressure
0.0,179.605363
0.076944,179.595685
0.201389,179.586006
0.327222,179.57536
0.414722,179.565682
0.5375,179.545357
0.660556,179.535679
0.738056,179.526
0.860278,179.495997
0.928056,179.495997
1.011667,179.495997
1.128333,179.485351
1.205,179.44567
1.3225,179.385664
1.417778,179.365339
1.541667,179.365339
1.663611,179.395342
1.731667,179.365339
1.819167,179.105958
1.939722,177.885514
2.064167,176.795727
2.133333,176.215992
2.218056,175.505598
2.333333,174.685839
2.429444,174.016094
2.542778,173.245695
2.664444,172.465617
2.733889,172.02525
2.855833,171.2955
2.940833,170.755446
3.063611,170.055698
3.128611,169.695662
3.225,169.175933
3.3475,168.495542
3.492222,167.745467
3.614444,167.126051
3.728056,166.565672
3.803889,166.155308
3.927778,165.565895
4.000556,165.185534
4.080556,164.805173
4.191667,164.266087
4.275,163.855724
4.410833,163.225661
4.527222,162.675928
4.603333,162.345895
4.720833,161.81552
4.794167,161.495165
4.871389,161.155454
4.990556,160.626046
5.063611,160.31537
5.143056,159.985337
5.261389,159.515935
5.361111,159.105571
5.493333,158.575196
5.585556,158.186124
5.655833,157.925776
5.735,157.616067
5.853889,157.166022
5.925,156.895995
6.003333,156.585319
6.120833,156.14592
6.190833,155.905896
6.269444,155.615545
6.401667,155.125818
6.519167,154.726101
6.589722,154.475431
6.669167,154.205404
6.788611,153.805686
6.858333,153.565662
6.936944,153.31596
7.053611,152.915275
7.122778,152.685897
7.204444,152.445873
7.325833,152.055834
7.410833,151.806132
7.531111,151.435449
7.605556,151.195425
7.723056,150.846036
7.793056,150.645693
7.874167,150.39599
7.991667,150.085314
8.061389,149.865615
8.14,149.665272
8.296667,149.215227
8.406389,148.915197
8.525833,148.575486
8.595,148.385789
8.675556,148.16609
8.793889,147.825411
8.863333,147.656039
8.941111,147.455696
9.058611,147.115985
9.128889,146.935967
9.209444,146.7153
9.374167,146.305904
9.466111,146.075558
9.536111,145.905219
9.653611,145.606157
9.723333,145.435817
9.824444,145.195793
9.919167,144.985772
9.99,144.815432
10.1,144.556052
10.196111,144.335384
10.265833,144.175691
10.348333,143.995673
10.482222,143.705321
10.633333,143.375288
10.734167,143.155589
10.803611,142.995896
10.931111,142.745225
11.007222,142.585532
11.129722,142.326151
11.198056,142.185815
11.281111,142.026121
11.409167,141.756094
11.528611,141.51607
11.600556,141.366055
11.684444,141.156034
11.803056,140.91601
11.926944,140.675986
11.995278,140.515325
12.078611,140.375956
12.191944,140.155289
12.268056,140.01592
12.405278,139.745893
12.5275,139.525226
12.605833,139.385857
12.728333,139.155512
12.7975,139.005497
12.879167,138.836125
12.991944,138.645461
13.067778,138.485767
13.186111,138.255422
13.257778,138.116053
13.333333,137.966038
13.42,137.816023
13.54,137.595356
13.663889,137.365978
13.731944,137.23532
13.811111,137.095951
13.924444,136.88593
14.000278,136.755272
14.071944,136.645906
14.189167,136.425239
14.2575,136.306194
14.338611,136.175536
14.4725,135.946158
14.590556,135.745816
14.658611,135.635482
14.74,135.46611
14.8575,135.275446
14.925556,135.155434
15.009167,135.005419
15.127778,134.815723
15.196944,134.686032
15.277778,134.536017
15.403889,134.325996
15.521667,134.145978
15.593333,134.01532
15.677778,133.865305
15.791389,133.66593
15.8725,133.525594
15.995833,133.295248
16.072778,133.165558
16.196944,132.955537
16.265,132.825846
16.349444,132.68551
16.476944,132.475489
16.598333,132.265468
16.675278,132.145456
16.7975,131.935435
16.877222,131.805744
17.001111,131.595723
17.069167,131.496036
17.192222,131.26569
17.231667,131.215363
17.519167,130.745961
17.596111,130.625949
17.672778,130.505937
17.795556,130.325919
17.864722,130.215585
17.949444,130.085895
18.064167,129.905877
18.140833,129.76554
18.263333,129.585522
18.338889,129.476157
18.476111,129.275814
18.599444,129.086118
18.668611,128.975784
18.791389,128.775441
18.868611,128.655429
18.99,128.475411
19.06,128.366046
19.143333,128.246034
19.260833,128.045691
19.338611,127.946004
19.475278,127.70598
19.598889,127.505637
19.675833,127.3653
19.799167,127.165926
19.869167,127.045914
19.991111,126.845571
20.066667,126.715881
20.141944,126.595869
20.263889,126.425529
20.341389,126.28616
20.466667,126.065493
20.593889,125.836115
20.663056,125.716103
20.748333,125.566088
20.861944,125.38607
20.938611,125.245734
21.060278,125.026034
21.136111,124.906022
21.258611,124.715358
21.326944,124.595346
21.426944,124.445331
21.541667,124.265313
21.663611,124.085295
21.740556,123.965283
21.853611,123.795911
21.937778,123.685578
22.060278,123.516206
22.128333,123.415551
22.213889,123.306185
22.328611,123.145524
22.420833,123.025512
22.534722,122.865818
22.656944,122.706125
22.730556,122.616116
22.812778,122.496104
22.9375,122.346089
23.060556,122.185428
23.121944,122.106065
23.214444,121.995731
23.33,121.855395
23.413611,121.755707
23.527778,121.596014
23.588889,121.525361
23.679167,121.405349
23.801111,121.235978
23.928056,121.075316
23.999444,120.975629
24.124444,120.825614
24.200556,120.725927
24.322778,120.58559
24.404722,120.495581
24.525833,120.345566
24.601944,120.245879
24.724167,120.125867
24.792778,120.045536
24.873889,119.93617
24.984722,119.825837
25.060556,119.745506
25.1325,119.666143
25.25,119.535485
25.323333,119.456122
25.417222,119.33611
25.5275,119.205452
25.604167,119.126089
25.728611,118.976074
25.809444,118.875419
25.930556,118.745729
26.000556,118.665398
26.125556,118.526029
26.201667,118.466023
26.324167,118.346011
26.4075,118.265681
26.53,118.125344
26.607222,118.035335
26.730278,117.905645
26.798056,117.825314
26.923056,117.665621
26.999444,117.565933
27.121389,117.40624
27.189444,117.286228
27.275833,117.196219
27.401944,117.025879
27.525278,116.875864
27.594167,116.776177
27.673611,116.665843
27.787222,116.536153
27.864444,116.446144
27.936389,116.356135
28.053611,116.20612
28.1225,116.125789
28.202778,116.026102
28.330556,115.885765
28.413333,115.795756
28.535,115.636063
28.652778,115.516051
28.725,115.43572
28.801111,115.315708
28.927222,115.13569
29.004444,115.05536
29.123889,115.006
29.193333,114.925669
29.273611,114.83566
29.397778,114.685645
29.473611,114.605315
29.583333,114.485303
29.66,114.40594
29.728056,114.325609
29.808611,114.225922
29.918611,114.096231
29.996389,113.995576
30.073889,113.905567
30.195278,113.755552
30.263333,113.665543
30.343056,113.575534
30.472222,113.436165
30.59,113.305507
30.667222,113.235823
30.794444,113.085808
30.867222,113.016123
30.986667,112.896111
31.055,112.806102
31.135278,112.716093
31.253056,112.596081
31.321389,112.536075
31.415833,112.395739
31.528333,112.315408
31.605,112.225399
31.729722,112.095709
31.803056,112.026024
31.925833,111.906012
31.994444,111.83536
32.074167,111.755997
32.184444,111.635985
32.263611,111.53533
32.335556,111.515973
32.470556,111.365958
32.59,111.266271
32.659722,111.176262
32.739444,111.116256
32.861111,110.996244
32.929167,110.925592
33.009444,110.846229
33.119722,110.715571
33.199444,110.645886
33.323889,110.50555
33.415556,110.396184
33.539722,110.255847
33.663889,110.105832
33.7325,110.036148
33.854167,109.886133
33.931111,109.815481
34.008056,109.725472
34.123056,109.60546
34.204167,109.515451
34.328333,109.376082
34.412778,109.295751
34.535556,109.155415
34.663611,109.0054
34.737222,108.926037
34.854167,108.795379
34.925,108.725694
35.007778,108.635685
35.13,108.495349
35.2,108.415986
35.324167,108.285328
35.411389,108.18564
35.53,108.05595
35.597778,107.965941
35.680556,107.875932
35.795,107.735595
35.8725,107.645586
35.995556,107.435565
36.068333,107.365881
36.19,107.275872
36.258056,107.15586
36.341389,107.035848
36.469722,106.876155
36.591111,106.765821
36.669722,106.645809
36.795833,106.576125
36.8725,106.42611
36.995,106.276095
37.064167,106.216089
37.148056,106.105755
37.269722,105.95574
37.405556,105.815403
37.530556,105.685713
37.598611,105.605382
37.725833,105.466014
37.801389,105.376005
37.928333,105.245346
37.995833,105.18534
38.079722,105.105978
38.193056,104.995644
38.269167,104.905635
38.406389,104.766266
38.528333,104.665611
38.605833,104.586248
38.728889,104.466236
38.798056,104.395584
38.8825,104.335578
39.0,104.215566
39.103333,104.125557
39.173333,104.065551
39.256944,103.995867
39.324722,103.935861
39.424722,103.85553
39.539444,103.765521
39.663056,103.656155
39.74,103.596149
39.863611,103.485816
39.939722,103.42581
40.061389,103.266116
40.129444,103.25547
40.212778,103.225467
40.329444,103.176107
40.4275,103.146104
40.546111,103.086098
40.668611,103.026092
40.793611,102.966086
40.866111,102.936083
40.985278,102.865431
41.069722,102.82575
41.1975,102.765744
41.236667,102.745419
41.520833,102.60605
41.615833,102.65541
41.732222,102.516041
41.860556,102.435711
41.921667,102.385383
41.997222,102.336023
42.0575,102.30602
42.153889,102.255693
42.270278,102.195687
42.407778,102.115356
42.530278,102.075675
42.597778,102.045672
42.682222,102.00599
42.796389,101.955663
42.871944,101.935338
42.995,101.885978
43.071944,101.855975
43.195278,101.805648
43.264444,101.775645
43.3325,101.745642
43.469444,101.675957
43.594722,101.645954
43.662222,101.655633
43.746667,101.666279
43.864444,101.675957
43.945278,101.685636
44.065278,101.675957
44.149722,101.685636
44.266667,101.685636
44.4025,101.675957
44.525556,101.675957
44.594167,101.685636
44.679167,101.666279
44.794444,101.675957
44.871667,101.666279
44.995,101.675957
45.070833,101.675957
45.1925,101.655633
45.260556,101.655633
45.343889,101.655633
45.472222,101.655633
45.594167,101.645954
45.671389,101.645954
45.795556,101.636276
45.872778,101.636276
45.995,101.62563
46.063056,101.62563
46.1475,101.615951
46.261944,101.615951
46.3375,101.606273
46.475,101.595627
46.589722,101.595627
46.675278,101.585948
46.789722,101.57627
46.866111,101.565624
46.989444,101.555945
47.067222,101.555945
47.189444,101.555945
47.256944,101.546267
47.3425,101.546267
47.4725,101.535621
47.596944,101.525942
47.673611,101.525942
47.789167,101.516264
47.875833,101.516264
47.993056,101.505618
48.072778,101.505618
48.204722,101.505618
48.332778,101.486261
48.475556,101.456258
48.598611,101.426255
48.721944,101.385606
48.797778,101.366249
48.873889,101.345924
48.9875,101.295597
49.072222,101.27624
49.195833,101.246237
49.265,101.225912
49.352778,101.195909
49.481667,101.165906
49.603889,101.135903
49.726111,101.115579
49.802778,101.096222
49.924444,101.066219
50.001111,101.055573
50.128611,101.02557
50.199722,101.015891
50.323056,100.995567
50.413611,100.97621
50.536389,100.955885
50.662778,100.935561
50.733611,100.916204
50.856667,100.886201
50.933333,100.886201
51.057222,100.856198
51.127778,100.845552
51.212222,100.835873
51.33,100.80587
51.42,100.80587
51.540833,100.775867
51.662222,100.766189
51.733333,100.755543
51.876389,100.745864
51.994167,100.72554
52.059167,100.715861
52.167778,100.706183
52.262778,100.695537
52.349444,100.685858
52.486944,100.685858
52.61,100.67618
52.741667,100.655855
52.872778,100.635531
52.995278,100.605528
53.063611,100.575525
53.148333,100.556168
53.266111,100.526165
53.419444,100.466159
53.581667,100.42551
53.667222,100.395507
53.791667,100.37615
53.859444,100.355825
53.947222,100.335501
54.069444,100.305498
54.191389,100.295819
54.265278,100.265816
54.344722,100.256138
54.474444,100.235813
54.598333,100.215489
54.674167,100.20581
54.796667,100.185486
54.872778,100.175807
54.994167,100.155483
55.0625,100.136126
55.146667,100.12548
55.262222,100.115801
55.339444,100.095477
55.476944,100.07612
55.590556,100.035471
55.653889,100.035471
55.719167,100.005468
55.781944,99.995789
55.828889,99.995789
55.894167,99.975465
55.949722,99.956108
56.013889,99.945462
56.086389,99.935783
56.159444,99.90578
56.217222,99.896102
56.282222,99.875777
56.356389,99.855453
56.445556,99.836096
56.488333,99.82545
56.561111,99.806093
56.6175,99.785768
56.681667,99.755765
56.754444,99.735441
56.830833,99.716084
56.886667,99.705438
56.951944,99.686081
57.026111,99.665756
57.083333,99.645432
57.156944,99.626075
57.229722,99.60575
57.285833,99.60575
57.349722,99.585426
57.437778,99.566069
57.484722,99.566069
57.548889,99.545744
57.621667,99.536066
57.694444,99.506063
57.751944,99.495417
57.836667,99.47606
57.940833,99.446057
58.059444,99.425732
58.128889,99.395729
58.207222,99.375405
58.328333,99.335723
58.436111,99.30572
58.530278,99.266039
58.584444,99.255393
58.679444,99.22539
58.797778,99.185708
58.859722,99.165384
58.949722,99.146027
59.091389,99.105378
59.186111,99.086021
59.253611,99.065696
59.333056,99.045372
59.466667,98.996012
59.586667,98.955363
59.655556,98.936006
59.736111,98.906003
59.856389,98.865354
59.923889,98.835351
60.003611,98.805348
60.121389,98.775345
60.193333,98.746309
60.273611,98.70566
60.407778,98.665979
60.518333,98.615651
60.598333,98.596294
60.670278,98.566291
60.793333,98.525642
60.862222,98.506285
60.9475,98.485961
61.058611,98.435633
61.136111,98.40563
61.257778,98.375627
61.335,98.35627
61.468333,98.315621
61.589722,98.285618
61.660556,98.27594
61.742222,98.255615
61.851667,98.225612
61.9275,98.206255
61.999167,98.176252
62.118333,98.165606
62.186389,98.155928
62.267778,98.125925
62.400278,98.1056
62.518333,98.086243
62.586389,98.075597
62.666111,98.05624
62.784444,98.035916
62.853333,98.026237
62.933889,98.015591
63.054167,97.996234
63.126944,97.985588
63.206111,97.97591
63.323611,97.966231
63.407222,97.955585
63.524444,97.936228
63.596111,97.925582
63.671667,97.925582
63.791667,97.906225
63.867222,97.895579
63.989167,97.885901
64.0575,97.876222
64.136944,97.865576
64.255278,97.855898
64.323611,97.855898
64.4175,97.846219
64.528333,97.835573
64.605,97.835573
64.729444,97.825895
64.803056,97.816216
64.920833,97.816216
64.988889,97.816216
65.068611,97.80557
65.186944,97.80557
65.229722,97.795892
65.5125,97.795892
65.593889,97.795892
65.663333,97.795892
65.746389,97.786213
65.86,97.775567
65.936111,97.765889
66.054444,97.765889
66.126389,97.75621
66.2025,97.735886
66.326389,97.726207
66.413889,97.726207
66.533611,97.715561
66.651389,97.685558
66.719444,97.67588
66.799444,97.67588
66.8675,97.666201
66.988611,97.666201
67.060833,97.666201
67.1375,97.655555
67.257778,97.645877
67.330556,97.655555
67.426667,97.636198
67.536944,97.645877
67.655,97.645877
67.724722,97.636198
67.804167,97.636198
67.926944,97.636198
67.989167,97.636198
68.0775,97.636198
68.188056,97.636198
68.259444,97.636198
68.338333,97.645877
68.476111,97.655555
68.594444,97.655555
68.655,97.655555
68.7425,97.655555
68.856667,97.655555
68.926667,97.666201
68.993056,97.666201
69.064167,97.67588
69.145833,97.666201
69.268056,97.67588
69.399722,97.67588
69.518333,97.685558
69.586389,97.685558
69.665833,97.705883
69.735,97.705883
69.855278,97.715561
69.929722,97.705883
70.015,97.715561
70.129167,97.715561
70.209722,97.715561
70.326111,97.726207
70.417222,97.726207
70.527222,97.735886
70.608611,97.745564
70.722778,97.735886
70.808333,97.735886
70.918889,97.735886
70.999444,97.745564
71.067778,97.745564
71.186667,97.726207
71.258889,97.726207
71.335556,97.726207
71.4725,97.705883
71.592222,97.67588
71.666111,97.666201
71.747222,97.655555
71.858056,97.636198
71.938333,97.636198
72.056667,97.615874
72.124444,97.625552
72.205556,97.615874
72.328611,97.606195
72.414167,97.595549
72.535278,97.606195
72.655556,97.595549
72.728333,97.595549
72.809444,97.585871
72.923333,97.595549
73.005278,97.585871
73.128056,97.585871
73.197222,97.595549
73.279722,97.595549
73.406944,97.595549
73.534167,97.595549
73.655556,97.606195
73.724444,97.606195
73.805556,97.615874
73.926944,97.625552
73.995,97.625552
74.075278,97.636198
74.192778,97.645877
74.269722,97.655555
74.403611,97.67588
74.521944,97.705883
74.593889,97.715561
74.669722,97.726207
74.788333,97.745564
74.86,97.75621
74.936667,97.765889
75.056389,97.786213
75.129444,97.795892
75.206389,97.816216
75.328056,97.835573
75.414444,97.846219
75.535833,97.855898
75.653611,97.855898
75.721667,97.865576
75.802778,97.865576
75.924722,97.885901
75.993611,97.885901
76.078333,97.885901
76.188333,97.906225
76.263889,97.915904
76.335556,97.925582
76.466944,97.955585
76.584444,97.97591
76.653611,97.985588
76.735,98.005913
76.855,98.026237
76.923889,98.045594
77.003611,98.065919
77.125,98.1056
77.198611,98.125925
77.278333,98.155928
77.402778,98.176252
77.525278,98.236258
77.5975,98.27594
77.678333,98.315621
77.793056,98.365949
77.868889,98.40563
77.990278,98.476282
78.069722,98.525642
78.188333,98.596294
78.256111,98.645654
78.336667,98.695982
78.478611,98.805348
78.59,98.895357
78.6675,98.966009
78.785278,99.056018
78.857222,99.135381
78.933333,99.185708
79.051389,99.30572
79.123333,99.356048
79.201944,99.425732
79.322222,99.515741
79.409722,99.575747
79.528333,99.635753
79.596111,99.675435
79.675278,99.725762
79.785556,99.806093
79.862778,99.855453
79.936389,99.90578
80.054722,99.986111
80.123611,100.035471
80.205278,100.085798
80.324444,100.155483
80.407222,100.215489
80.526667,100.305498
80.598611,100.355825
80.676111,100.406153
80.792778,100.466159
80.820833,100.475837
80.851389,100.475837
80.880833,100.455513
80.890833,100.455513
80.968889,100.445834
81.041389,100.436156
81.161667,100.436156
81.247222,100.436156
81.343333,100.42551
81.479167,100.445834
81.597222,100.445834
81.6575,100.445834
81.744722,100.455513
81.855,100.466159
81.924722,100.466159
81.999444,100.455513
82.070278,100.466159
82.194722,100.466159
82.277778,100.485516
82.409444,100.496162
82.5275,100.50584
82.587778,100.50584
82.675278,100.50584
82.786111,100.515519
82.855833,100.515519
82.935278,100.526165
83.055833,100.526165
83.125556,100.535843
83.203889,100.545522
83.321667,100.565846
83.405278,100.575525
83.523889,100.565846
83.603611,100.535843
83.725,100.515519
83.795278,100.515519
83.875833,100.496162
83.994167,100.496162
84.055278,100.496162
84.1425,100.485516
84.252222,100.496162
84.322222,100.50584
84.416389,100.50584
84.535833,100.526165
84.654167,100.556168
84.740833,100.565846
84.861944,100.586171
84.926111,100.605528
85.010556,100.616174
85.127778,101.955663
85.191944,103.375482
85.277222,105.646032
85.412778,110.085508
85.560278,119.735828
85.658333,126.646196
85.730556,131.505714
85.81,136.306194
85.920833,142.626181
85.976111,145.505501
86.0475,148.865837
86.067222,149.745603
86.148056,153.826011
86.258611,159.19558
86.324722,160.91543
86.425556,161.94521
86.520833,161.665505
86.599722,161.125451
86.67,160.296013
86.792222,158.965235
86.876667,156.525313
86.999167,152.016153
87.063333,149.835612
87.151667,147.155666
87.264722,144.055679
87.334444,142.425839
87.466389,139.755572
87.52,138.746116
87.615,137.215963
87.729444,135.535795
87.7925,134.645383
87.880278,133.505269
87.999722,132.105774
88.053056,131.56572
88.1475,130.5853
88.299722,128.86545
88.3775,128.025366
88.488333,126.965583
88.611944,125.896121
88.730833,124.906022
88.801667,124.375647
88.923333,123.15617
88.999167,122.425452
89.074722,121.746029
89.192778,120.705602
89.231944,120.395894
89.517778,118.256002
89.599167,117.765308
89.6725,117.445921
89.7925,116.926192
89.860556,116.63584
89.9425,116.266126
90.060556,115.775432
90.130833,115.486048
90.211389,115.145369
90.323056,114.655642
90.414167,114.276249
90.525833,113.796201
90.605556,113.466168
90.723611,112.965796
90.791667,112.68609
90.871111,112.38606
90.989722,111.906012
91.057778,111.645664
91.138333,111.335955
91.259167,110.906235
91.328333,110.655565
91.424167,110.315853
91.534167,109.90549
91.651389,109.515451
91.728056,109.25607
91.8,109.016046
91.877778,108.765376
91.988889,108.395661
92.070556,108.136281
92.1925,107.725917
92.265278,107.485893
92.346944,107.225544
92.478056,106.795824
92.597222,106.405785
92.674167,106.165761
92.793056,105.7854
92.865278,105.565701
92.9425,105.325677
93.053333,105.00629
93.1375,104.725617
93.256111,104.395584
93.324444,104.205888
93.418611,103.956185
93.528611,103.645509
93.604722,103.455813
93.724167,103.135458
93.797222,102.945762
93.874167,102.735741
93.994722,102.435711
94.066667,102.246014
94.1425,102.065996
94.252222,101.786291
94.331667,101.606273
94.414167,101.40593
94.531667,101.145582
94.603889,100.985888
94.723611,100.706183
94.791389,100.575525
94.872778,100.395507
94.994722,100.12548
95.062778,99.975465
