time,pressure
0.0,155.876254
0.083333,153.875732
0.416667,147.876099
0.916667,140.875722
1.416667,134.87609
1.916667,129.876235
2.916667,122.875857
3.916667,115.876448
4.916667,110.875625
5.916667,105.87577
6.916667,101.875693
7.916667,98.876361
9.916667,90.876206
12.916667,82.876051
14.916667,76.876419
17.5,71.876564
20.916667,65.875964
22.916667,62.876632
25.916667,59.876332
28.916667,57.875809
30.916667,55.876254
31.916667,54.876477
36.916667,51.876177
41.916667,48.875877
45.916667,46.876322
48.666667,45.876545
50.916667,45.876545
52.916667,45.876545
54.916667,44.875799
55.916667,44.875799
60.916667,44.875799
65.916667,43.876022
70.25,43.876022
72.75,43.876022
76.916667,43.876022
78.916667,43.876022
79.916667,43.876022
84.916667,43.876022
88.916667,43.876022
93.916667,43.876022
96.75,43.876022
100.916667,43.876022
103.916667,43.876022
108.916667,43.876022
124.916667,43.876022
127.916667,43.876022
132.916667,43.876022
148.916667,43.876022
151.916667,42.876245
156.916667,42.876245
172.916667,43.876022
175.916667,43.876022
180.916667,43.876022
196.916667,43.876022
199.916667,43.876022
204.916667,41.876467
220.916667,38.876167
223.916667,38.876167
228.916667,38.876167
244.916667,38.876167
252.916667,38.876167
268.916667,38.876167
276.916667,38.876167
292.916667,38.876167
300.916667,38.876167
316.916667,38.876167
328.916667,38.876167
340.916667,38.876167
352.916667,38.876167
364.916667,38.876167
376.916667,38.876167
388.916667,38.876167
400.916667,38.876167
412.916667,38.876167
424.916667,38.876167
436.916667,38.876167
448.916667,38.876167
460.916667,38.876167
472.916667,38.876167
484.916667,38.876167
496.916667,38.876167
508.916667,38.876167
520.916667,38.876167
532.916667,38.876167
544.916667,38.876167
556.916667,38.876167
568.916667,38.876167
580.916667,38.876167
592.916667,38.876167
604.916667,38.876167
616.916667,38.876167
628.916667,38.876167
640.916667,38.876167
652.916667,38.876167
664.916667,38.876167
676.916667,38.876167
688.916667,38.876167
700.916667,38.876167
712.916667,38.876167
724.916667,38.876167
736.916667,38.876167
748.916667,38.876167
760.916667,37.87639
772.916667,38.876167
784.916667,38.876167
796.916667,38.876167
808.916667,38.876167
820.916667,37.87639
832.916667,37.87639
844.916667,38.876167
856.916667,38.876167
868.916667,38.876167
880.916667,38.876167
892.916667,38.876167
904.916667,38.876167
916.916667,38.876167
928.916667,38.876167
940.916667,38.876167
952.916667,38.876167
964.916667,37.87639
976.916667,37.87639
988.916667,38.876167
1000.916667,38.876167
1012.916667,38.876167
1024.916667,37.87639
1036.916667,38.876167
1048.916667,38.876167
1060.916667,38.876167
1072.916667,38.876167
1084.916667,38.876167
1096.916667,37.87639
1108.916667,37.87639
1120.916667,37.87639
1132.916667,38.876167
1144.916667,38.876167
1156.916667,38.876167
1168.916667,38.876167
1180.916667,38.876167
1192.916667,38.876167
1204.916667,38.876167
1216.916667,38.876167
1228.916667,38.876167
1240.916667,38.876167
1252.916667,38.876167
1264.916667,38.876167
1276.916667,38.876167
1288.916667,38.876167
1300.916667,38.876167
1312.916667,38.876167
1324.916667,38.876167
1336.916667,38.876167
1348.916667,38.876167
1360.916667,38.876167
1372.916667,38.876167
1384.916667,38.876167
1396.916667,38.876167
1408.916667,38.876167
1420.916667,38.876167
1432.916667,38.876167
1444.916667,38.876167
1456.916667,38.876167
1468.916667,38.876167
1480.916667,38.876167
1492.916667,38.876167
1504.916667,38.876167
1516.916667,38.876167
1528.916667,38.876167
1540.916667,38.876167
1552.916667,38.876167
1564.916667,38.876167
1576.916667,38.876167
1588.916667,38.876167
1600.916667,38.876167
1612.916667,38.876167
1624.916667,38.876167
1636.916667,38.876167
1648.916667,38.876167
1660.916667,36.876612
1672.916667,36.876612
1684.916667,36.876612
1696.916667,36.876612
1708.916667,36.876612
1720.916667,36.876612
1732.916667,36.876612
1744.916667,36.876612
1756.916667,36.876612
1768.916667,36.876612
1780.916667,36.876612
1792.916667,36.876612
1804.916667,36.876612
1816.916667,36.876612
1828.916667,36.876612
1840.916667,36.876612
1852.916667,36.876612
1864.916667,36.876612
1876.916667,36.876612
1888.916667,36.876612
1900.916667,36.876612
1912.916667,36.876612
1924.916667,36.876612
1936.916667,36.876612
1948.916667,36.876612
1960.916667,36.876612
1972.916667,36.876612
1984.916667,36.876612
1996.916667,36.876612
2008.916667,36.876612
2020.916667,36.876612
2032.916667,36.876612
2044.916667,36.876612
2056.916667,36.876612
2068.916667,36.876612
2080.916667,36.876612
2092.916667,36.876612
2104.916667,36.876612
2116.916667,36.876612
2128.916667,36.876612
2140.916667,36.876612
2152.916667,36.876612
2164.916667,36.876612
2176.916667,36.876612
2188.916667,36.876612
2200.916667,36.876612
2212.916667,36.876612
2224.916667,36.876612
2236.916667,36.876612
2248.916667,36.876612
2260.916667,36.876612
2272.916667,36.876612
2284.916667,36.876612
2296.916667,36.876612
2308.916667,36.876612
2320.916667,36.876612
2332.916667,36.876612
2344.916667,35.875867
2356.916667,36.876612
2368.916667,36.876612
2380.916667,36.876612
2392.916667,36.876612
2404.916667,36.876612
2416.916667,36.876612
2428.916667,36.876612
2440.916667,36.876612
2452.916667,36.876612
2464.916667,36.876612
2476.916667,36.876612
2488.916667,36.876612
2500.916667,36.876612
2512.916667,36.876612
2524.916667,36.876612
2536.916667,36.876612
2548.916667,36.876612
2560.916667,36.876612
2572.916667,36.876612
2584.916667,36.876612
2596.916667,36.876612
2608.916667,36.876612
2620.916667,36.876612
2632.916667,36.876612
2644.916667,36.876612
2656.916667,35.875867
2668.916667,36.876612
2675.833333,36.876612
2680.416667,83.875828
2680.666667,82.876051
2680.916667,77.876196
2681.666667,70.875819
2688.166667,45.876545
2692.916667,40.87669
2704.916667,36.876612
2716.916667,36.876612
2728.916667,36.876612
2740.916667,36.876612
2752.916667,36.876612
2764.916667,36.876612
2776.916667,36.876612
2788.916667,36.876612
2800.916667,36.876612
2812.916667,36.876612
2824.916667,36.876612
2836.916667,36.876612
2848.916667,36.876612
2860.916667,36.876612
2872.916667,36.876612
2884.916667,36.876612
2896.916667,36.876612
2908.916667,36.876612
2920.916667,36.876612
2932.916667,36.876612
2944.916667,36.876612
2956.916667,36.876612
2968.916667,36.876612
2980.916667,36.876612
2992.916667,36.876612
3004.916667,36.876612
3016.916667,36.876612
3028.916667,36.876612
3040.916667,36.876612
3052.916667,36.876612
3064.916667,36.876612
3076.916667,36.876612
3088.916667,36.876612
3100.916667,36.876612
3112.916667,36.876612
3124.916667,36.876612
3136.916667,36.876612
3148.916667,36.876612
3160.916667,36.876612
3172.916667,36.876612
3184.916667,36.876612
3196.916667,36.876612
3208.916667,36.876612
3220.916667,36.876612
3232.916667,36.876612
3244.916667,36.876612
3256.916667,36.876612
3268.916667,37.87639
3280.916667,37.87639
3292.916667,36.876612
3304.916667,36.876612
3316.916667,36.876612
3328.916667,36.876612
3340.916667,36.876612
3352.916667,36.876612
3364.916667,36.876612
3376.916667,36.876612
3388.916667,36.876612
3400.916667,36.876612
3412.916667,37.87639
3424.916667,37.87639
3436.916667,36.876612
3448.916667,36.876612
3460.916667,36.876612
3472.916667,36.876612
3484.916667,36.876612
3496.916667,36.876612
3508.916667,36.876612
3520.916667,36.876612
3532.916667,36.876612
3544.916667,36.876612
3556.916667,36.876612
3568.916667,36.876612
3580.916667,36.876612
3592.916667,36.876612
3604.916667,36.876612
3616.916667,36.876612
3628.916667,36.876612
3640.916667,36.876612
3652.916667,36.876612
3664.916667,36.876612
3676.916667,36.876612
3688.916667,36.876612
3700.916667,36.876612
3712.916667,36.876612
3724.916667,36.876612
3736.916667,36.876612
3748.916667,36.876612
3760.916667,36.876612
3772.916667,36.876612
3784.916667,36.876612
3796.916667,36.876612
