time,pressure
0.0,113.734017
0.000278,113.734017
0.000556,113.734017
0.000833,113.734017
0.001111,113.734017
0.001389,113.734017
0.001667,113.734017
0.001944,113.734017
0.002222,113.734017
0.0025,113.734017
0.002778,113.734017
0.003056,113.734017
0.003333,113.734017
0.003611,113.734017
0.003889,113.734017
0.004167,113.734017
0.004444,113.734017
0.004722,113.734017
0.005,113.734017
0.005278,113.734017
0.005556,113.734017
0.055556,109.562632
0.105556,107.636633
0.155556,105.904202
0.205556,104.375017
0.255556,103.049077
0.305556,101.858636
0.355556,100.81337
0.405556,99.806818
0.455556,98.858336
0.505556,98.035673
0.555556,97.45497
0.605556,96.719412
0.655556,96.080639
0.705556,95.528971
0.755556,95.016016
0.805556,94.541775
0.855556,94.115926
0.905556,93.719112
0.955556,93.351334
1.005278,93.002912
1.023056,92.886771
2.023056,88.81217
3.022778,86.624854
4.0225,85.056956
5.0225,83.71166
6.022222,82.530897
7.021944,81.504988
8.021944,80.517792
9.021667,79.540275
10.021389,78.707934
11.021389,77.953019
12.021111,77.198105
13.020833,76.491583
14.020833,75.823774
15.020556,75.194679
16.020278,74.613976
17.020278,74.042951
17.375833,73.830027
19.857222,99.090617
19.8575,99.090617
19.857778,99.090617
19.858056,99.090617
19.858333,99.090617
19.858611,99.090617
19.858889,99.090617
19.859167,99.090617
19.859444,99.090617
19.859722,99.090617
19.86,99.090617
19.860278,99.090617
19.860556,99.090617
19.860833,99.090617
19.861111,99.090617
19.861389,99.090617
19.861667,99.090617
19.861944,99.090617
19.862222,99.090617
19.8625,99.090617
19.862778,99.090617
20.8625,78.185301
21.8625,75.146287
22.862222,74.004238
23.861944,73.259002
24.861944,72.581515
25.861667,72.513766
26.861389,72.223414
27.000556,72.175022
31.999722,70.490983
36.998889,69.06826
41.997778,67.984281
46.996944,67.02612
51.996111,66.155066
56.995,65.438865
61.994167,64.742021
66.993333,64.258102
71.992222,63.590293
76.991389,63.087017
81.990556,62.632133
86.989444,62.186927
91.988611,61.80947
96.987778,61.422334
101.986667,61.102947
106.985833,60.860988
111.985,60.628706
116.984167,60.377068
121.983056,60.183501
126.982222,59.980254
131.981389,59.738295
136.980278,59.612476
141.979444,59.389873
146.978611,59.16727
151.9775,59.041451
156.976667,58.857562
161.975833,58.722064
166.975,58.693029
171.973889,58.722064
176.973056,58.615602
181.972222,58.56721
186.971111,58.56721
191.970278,58.489783
196.969444,58.518818
201.968611,58.334929
206.9675,58.170396
211.966667,58.112326
216.965833,57.976828
221.964722,57.889723
226.963889,57.792939
231.963056,57.734869
236.961944,57.66712
241.961111,57.550979
246.960278,57.531623
251.959167,57.434839
256.958333,57.376768
261.9575,57.260628
266.956667,57.173522
271.955556,57.134809
276.954722,57.231593
281.953889,57.076738
286.952778,57.038025
291.951944,56.912206
296.951111,56.883171
301.95,56.912206
306.949167,56.873492
311.948333,56.786387
316.947222,56.737995
321.946389,56.718638
326.945556,56.70896
331.944444,56.650889
336.943611,56.583141
341.942778,56.515392
346.941667,56.544427
351.940833,56.496035
356.94,56.515392
361.938889,56.496035
366.938056,56.486357
371.936944,56.457322
376.936111,56.931563
378.221111,56.52507
383.4775,56.389573
388.476667,56.118578
393.475556,56.050829
398.474722,55.973402
403.473611,55.895975
408.472778,55.779834
413.471667,55.712086
418.470833,55.634659
423.47,55.595945
428.469167,55.56691
433.468056,55.479804
438.467222,55.50884
443.466389,55.441091
448.465278,55.412056
453.464444,55.441091
458.463611,55.353985
463.4625,55.315272
468.461667,55.26688
473.460833,55.228166
478.46,55.179774
483.458889,55.131382
488.458056,55.160418
493.457222,55.063634
498.456111,55.015242
503.455278,55.005563
508.454444,54.928136
513.453333,54.918458
518.4525,54.928136
523.451667,54.90878
528.450556,54.811996
533.449722,54.821674
538.448889,54.782961
543.447778,54.879744
548.446944,54.821674
553.446111,54.782961
558.445278,54.744247
563.444167,54.686177
568.443333,54.734569
573.4425,54.628106
578.441389,54.686177
583.440556,54.831352
588.439722,54.841031
593.438611,54.947493
598.437778,55.044277
603.436944,55.112026
608.435833,55.20881
613.435,55.315272
618.434167,54.318398
623.433056,54.299041
628.432222,54.30872
633.431389,54.270006
638.430278,54.299041
643.429444,54.357112
648.428611,54.36679
653.427778,54.36679
658.426667,54.415182
663.425833,54.511966
668.424722,54.444217
673.423889,54.415182
678.423056,54.36679
683.421944,54.328076
688.421111,54.221614
693.420278,54.211936
698.419167,54.182901
703.418333,54.018368
708.4175,53.921584
713.416389,55.005563
718.415556,53.999011
723.414722,54.00869
728.413889,53.950619
733.412778,53.853835
738.411944,53.786087
743.410833,53.679624
748.41,53.582841
753.409167,53.534449
758.408056,53.427986
763.407222,53.457022
768.406389,53.398951
773.405278,53.369916
778.404444,53.350559
783.403611,53.195705
788.402778,53.22474
793.401667,53.234419
798.400833,53.1086
803.4,53.118278
808.398889,53.089243
813.398056,53.031172
818.397222,52.963424
823.396111,52.944067
828.395278,52.944067
833.394444,52.895675
838.393333,52.856962
843.3925,52.818248
848.391667,52.779534
853.390556,52.702107
858.389722,52.740821
863.388889,52.682751
868.387778,52.702107
873.386944,52.644037
878.385833,52.585967
883.385,52.615002
888.384167,52.595645
893.383056,52.576288
898.382222,52.595645
903.381111,52.556932
908.380278,52.62468
913.379444,52.518218
918.378333,52.518218
923.3775,52.547253
928.376667,52.450469
933.375556,52.450469
938.374722,52.440791
943.373889,52.382721
948.372778,52.314972
953.371944,52.363364
958.371111,52.363364
963.37,52.440791
968.369167,52.402077
973.368333,52.450469
978.3675,52.518218
983.366389,52.615002
988.365556,52.605323
993.364444,52.721464
998.363611,52.750499
1003.362778,52.92471
1008.361667,52.953745
1013.360833,53.060208
1018.359722,53.137635
1023.358889,53.195705
1028.358056,53.302167
1033.356944,53.427986
1038.356111,53.369916
1043.355,53.447343
1048.354167,53.505413
1053.353056,53.621554
1058.352222,53.718338
1063.351389,53.747373
1068.350278,53.815122
1073.349444,53.8248
1078.348611,53.902227
1083.3475,54.00869
1088.346667,54.00869
1093.345833,54.047403
1098.344722,54.086117
1103.343889,54.12483
1108.343056,54.182901
1113.341944,54.192579
1118.341111,54.250649
1123.340278,54.279684
1128.339444,54.240971
1133.338333,54.250649
1138.3375,54.318398
1143.336389,54.279684
1148.335556,54.328076
1153.334722,54.376468
1158.333611,54.347433
1163.332778,54.395825
1168.331667,54.482931
1173.330833,54.492609
1178.33,54.453895
1183.328889,54.531322
1188.328056,54.502287
1193.327222,54.521644
1198.326111,54.541001
1203.325278,54.521644
1208.324444,54.560358
1213.323333,54.66682
1218.3225,54.647463
1223.321667,54.715212
1228.320556,54.676498
1233.319722,54.715212
1238.318611,54.657142
1243.317778,54.734569
1248.316944,54.792639
1253.315833,54.782961
1258.315,54.811996
1263.314167,54.763604
1268.313056,54.715212
1273.312222,54.589393
1278.311389,54.463574
1283.310278,54.36679
1288.309444,54.240971
1293.308611,54.134509
1298.3075,53.969976
1303.306667,53.844157
1308.305556,53.747373
1313.304722,53.631232
1318.303889,53.534449
1323.302778,53.398951
1328.301944,53.340881
1333.301111,53.234419
1338.3,53.215062
1343.299167,53.098921
1348.298333,52.963424
1353.297222,52.915032
1358.296389,52.750499
1363.295556,52.80857
1368.294444,52.740821
1373.293611,52.644037
1378.292778,52.605323
1383.291667,52.527896
1388.290833,52.537575
1393.29,52.402077
1398.288889,52.440791
1403.288056,52.440791
1408.287222,52.382721
1413.286111,52.353685
1418.285278,52.218188
1423.284444,52.334329
1428.283333,52.179474
1433.2825,52.218188
1438.281667,52.20851
1443.280833,52.198831
1448.279722,52.140761
1453.278889,52.102047
1458.277778,52.150439
1463.276944,52.063334
1468.276111,52.034299
1473.275,52.02462
1478.274167,52.043977
1483.273333,52.082691
1488.272222,52.092369
1493.271389,52.121404
1498.270556,52.014942
1503.269444,52.005263
1508.268611,52.053655
1513.267778,52.014942
1518.266667,51.976228
1523.265833,51.96655
1528.265,51.976228
1533.264167,51.956871
1538.263056,52.005263
1543.262222,51.956871
1548.261389,51.90848
1553.260278,52.063334
1558.259444,51.898801
1563.258611,51.831052
1568.2575,51.782661
1573.256667,51.802017
1578.255833,51.821374
1583.254722,51.821374
1588.253889,51.743947
1593.253056,51.734269
1598.251944,51.714912
1603.251111,51.753625
1608.250278,51.831052
1613.249167,51.714912
1618.248333,51.676198
1623.2475,51.676198
1628.246389,51.676198
1633.245556,51.627806
1638.244722,51.579414
1643.243611,51.579414
1648.242778,51.569736
1653.241944,51.598771
1658.240833,51.560058
1663.24,51.531022
1668.239167,51.569736
1673.238056,51.560058
1678.237222,51.560058
1683.236389,51.656841
1688.235556,51.695555
1693.234444,51.511666
1698.233611,51.492309
1703.232778,51.501987
1708.231667,51.492309
1713.230833,51.589093
1718.23,51.482631
1723.228889,51.501987
1728.228056,51.511666
1733.227222,51.501987
1738.226111,51.453595
1743.225278,51.443917
1748.224444,51.453595
1753.223333,51.376168
1758.2225,51.376168
1763.221667,51.337455
1768.220556,51.36649
1773.219722,51.356811
1778.218889,51.443917
1783.217778,51.356811
1788.216944,51.347133
1793.216111,51.347133
1798.215,51.356811
1803.214167,51.356811
1808.213333,51.347133
1813.212222,51.385847
1818.211389,51.318098
1823.210556,51.36649
1828.209444,51.211636
1833.208611,51.134209
1838.207778,51.056781
1843.206667,51.095495
1848.205833,51.047103
1853.205,51.06646
1858.203889,50.882571
1863.203056,50.959998
1868.202222,50.998711
1873.201111,50.795465
1878.200278,50.669646
1883.199444,50.563184
1888.198333,50.418008
1893.1975,50.427686
1898.196389,50.195405
1903.195556,50.030872
1908.194722,49.895375
1913.193611,49.759878
1918.192778,49.614702
1923.191944,49.392099
1928.190833,49.285637
1933.19,49.092069
1938.189167,49.063034
1943.188056,48.985607
1948.187222,48.946893
1953.186389,48.975928
1958.185556,48.995285
1963.184444,49.159818
1968.183611,49.169496
1973.1825,49.130782
1978.181667,49.159818
1983.180833,49.159818
1988.179722,49.363064
1993.178889,49.314672
1998.178056,49.285637
2003.176944,49.314672
2008.176111,49.382421
2013.175278,49.50824
2018.174167,49.50824
2023.173333,49.498561
2028.1725,49.498561
2033.171389,49.488883
2038.170556,49.672772
2043.169722,49.50824
2048.168611,49.56631
2053.167778,49.537275
2058.166944,49.62438
2063.165833,49.614702
2068.165,49.575988
2073.164167,49.692129
2078.163056,49.653415
2083.162222,49.730842
2088.161111,49.721164
2093.160278,49.721164
2098.159444,49.730842
2103.158333,49.750199
2108.1575,49.817948
2113.156667,49.817948
2118.155556,49.895375
2123.154722,49.779234
2128.153889,49.876018
2133.152778,49.895375
2138.151944,49.817948
2143.150833,49.827626
2148.15,49.779234
2153.149167,49.876018
2158.148056,49.885697
2163.147222,49.837305
2168.146389,49.750199
2173.145278,49.798591
2178.144444,49.798591
2183.143333,49.934089
2188.1425,49.80827
2193.141389,49.80827
2198.140556,49.788913
2203.139722,49.846983
2208.138889,49.721164
2213.137778,49.692129
2218.136944,49.701807
2223.136111,49.643737
2228.135,49.730842
2233.134167,49.663094
2238.133333,49.837305
2243.132222,49.634059
2248.131389,49.62438
2253.130556,49.653415
2258.129444,49.585667
2263.128611,49.605023
2268.127778,49.479204
2273.126667,49.392099
2278.125833,49.440491
2283.125,49.392099
2288.123889,49.411456
2293.123056,49.392099
2298.122222,49.363064
2303.121389,49.392099
2308.120278,49.392099
2313.119444,49.363064
2318.118611,49.295315
2323.1175,49.246923
2328.116667,49.304993
2333.115833,49.285637
2338.114722,49.179174
2343.113889,49.20821
2348.113056,49.150139
2353.111944,49.140461
2358.111111,49.169496
2363.110278,49.159818
2368.109444,49.159818
2373.108333,49.179174
2378.1075,49.188853
2383.106667,49.20821
2388.105556,49.227566
2393.104722,49.227566
2396.219444,78.36919
2396.219722,78.36919
2396.22,78.36919
2396.220278,78.36919
2396.220556,78.36919
2396.220833,78.36919
2396.221111,78.36919
2396.221389,78.36919
2396.221667,78.36919
2396.221944,78.36919
2396.222222,78.36919
2396.2225,78.36919
2396.222778,78.36919
2396.223056,78.36919
2396.223333,78.36919
2396.223611,78.36919
2396.223889,78.36919
2396.224167,78.36919
2396.224444,78.36919
2396.224722,78.36919
2396.225,78.36919
2401.224167,51.279384
2406.223056,50.52447
2411.222222,50.059908
2416.221389,49.827626
2421.220278,49.643737
2423.221944,49.546953
2428.302778,49.285637
2433.301944,49.140461
2438.301111,49.082391
2443.3,48.96625
2448.299167,48.90818
2453.298333,48.801717
2458.297222,48.685577
2463.296389,48.627506
2468.295556,48.559758
2473.294444,48.521044
2478.293611,48.433939
2483.292778,48.404903
2488.291667,48.36619
2493.290833,48.356511
2498.289722,48.250049
2503.288889,48.250049
2508.288056,48.172622
2513.286944,48.172622
2518.286111,48.30812
2523.285,48.143587
2528.284167,48.104873
2533.283333,48.075838
2538.282222,48.037125
2543.281111,48.095195
2548.280278,47.998411
2553.279444,47.959698
2558.278333,47.930662
2563.2775,48.114552
2568.276389,48.017768
2573.275556,47.901627
2578.274444,47.795165
2583.273611,47.901627
2588.272778,47.785487
2593.271667,47.785487
2598.270833,47.717738
2603.27,47.630632
2608.268889,47.640311
2613.268056,47.611276
2618.266944,47.620954
2623.266111,47.58224
2628.265278,47.562884
2633.264167,47.52417
2638.263333,47.543527
2643.2625,47.4661
2648.261389,47.427386
2653.260556,47.359638
2658.259444,104.462122
2663.258611,55.005563
2666.636944,53.950619
2666.713611,56.883171
2666.713889,56.883171
2666.714167,56.883171
2666.714444,56.883171
2666.714722,56.883171
2666.715,56.883171
2666.715278,56.883171
2666.715556,56.883171
2666.715833,56.883171
2666.716111,56.883171
2666.716389,56.883171
2666.716667,56.883171
2666.716944,56.883171
2666.717222,56.883171
2666.7175,56.883171
2666.717778,56.883171
2666.718056,56.883171
2666.718333,56.883171
2666.718611,56.883171
2666.718889,56.883171
2666.719167,56.883171
2671.718056,52.092369
2676.717222,51.134209
2681.716111,50.40833
2686.715278,49.86634
2691.714167,49.343707
2696.713333,48.898501
2701.7125,48.753325
2706.711389,48.48233
2711.710556,48.337155
2716.709722,48.114552
2721.708611,48.037125
2726.707778,47.930662
2731.706944,47.891949
2736.705833,47.872592
2738.866389,47.804843
2738.943056,50.1083
2738.943333,50.1083
2738.943611,50.1083
2738.943889,50.1083
2738.944167,50.1083
2738.944444,50.1083
2738.944722,50.1083
2738.945,50.1083
2738.945278,50.1083
2738.945556,50.1083
2738.945833,50.1083
2738.946111,50.1083
2738.946389,50.1083
2738.946667,50.1083
2738.946944,50.1083
2738.947222,50.1083
2738.9475,50.1083
2738.947778,50.1083
2738.948056,50.1083
2738.948333,50.1083
2738.948611,50.1083
2743.947778,47.204783
2748.946944,47.204783
2750.056389,47.204783
2750.059167,47.204783
2755.058056,47.204783
2760.057222,46.236945
2765.056111,46.236945
2770.055278,46.236945
2775.054167,46.236945
2780.053333,46.236945
2785.052222,46.236945
2790.051389,46.236945
2795.050278,46.236945
2800.049444,46.236945
2805.048333,46.236945
2810.047222,46.236945
2815.046389,46.236945
2820.045556,46.236945
2825.044444,46.236945
2830.043333,46.236945
2835.0425,46.236945
2840.041389,46.236945
2841.980278,46.236945
2841.983056,46.236945
2846.982222,46.236945
2851.981111,46.236945
2856.98,45.269106
2861.979167,45.269106
2866.978056,45.269106
2871.977222,45.269106
2876.976389,45.269106
2881.975278,45.269106
2886.974167,45.269106
2891.973333,45.269106
2896.9725,45.269106
2901.971389,45.269106
2906.970556,45.269106
2911.969444,45.269106
2916.968611,45.269106
2921.9675,45.269106
2926.966667,45.269106
2931.965556,45.269106
2936.964722,45.269106
2940.041667,45.269106
2940.118333,48.792039
2940.118611,48.792039
2940.118889,48.792039
2940.119167,48.792039
2940.119444,48.792039
2940.119722,48.792039
2940.12,48.792039
2940.120278,48.792039
2940.120556,48.792039
2940.120833,48.792039
2940.121111,48.792039
2940.121389,48.792039
2940.121667,48.792039
2940.121944,48.792039
2940.122222,48.792039
2940.1225,48.792039
2940.122778,48.792039
2940.123056,48.792039
2940.123333,48.792039
2940.123611,48.792039
2940.123889,48.792039
2945.123056,45.540101
2950.121944,45.675598
2955.120833,45.520744
2960.12,45.452995
2965.119167,45.443317
2970.118056,45.414282
2975.117222,45.375568
2980.116111,45.298141
2985.115278,45.249749
2990.114444,45.191679
2995.113333,45.346533
3000.112222,45.230392
3005.111389,45.143287
3010.110278,45.133609
3015.109444,45.152965
3020.108333,45.211036
3025.107222,45.12393
3030.106389,45.094895
3035.105278,45.056181
3040.104444,45.06586
3045.103333,45.12393
3050.102222,45.046503
3055.101389,44.969076
3060.100556,45.036825
3065.099444,44.988433
3070.098611,44.978754
3075.0975,44.969076
3080.096667,44.998111
3085.095833,44.969076
3095.093889,48.675898
3100.093056,48.550079
3105.091944,48.1823
3110.091111,47.911306
3115.090278,47.649989
3120.089167,47.504813
3125.088333,47.330602
3130.087222,47.22414
3135.086389,47.137035
3141.715,52.092369
3146.714167,53.815122
3151.713333,56.660568
3156.712222,60.077038
3166.710556,56.176648
3171.709444,57.60905
3176.708611,60.473852
3181.707778,62.070786
3184.043056,62.52567
3184.699722,75.901201
3184.7,75.901201
3184.700278,75.901201
3184.700556,75.901201
3184.700833,75.901201
3184.701111,75.901201
3184.701389,75.901201
3184.701667,75.901201
3184.701944,75.901201
3184.702222,75.901201
3184.7025,75.901201
3184.702778,75.901201
3184.703056,75.901201
3184.703333,75.901201
3184.703611,75.901201
3184.703889,75.901201
3184.704167,75.901201
3184.704444,75.988307
3184.704722,75.988307
3184.705,75.988307
3184.705278,75.988307
3184.713333,75.678599
3184.888056,77.672346
3184.888333,77.672346
3184.888611,77.672346
3184.888889,77.672346
3184.889167,77.672346
3184.889444,77.672346
3184.889722,77.672346
3184.89,77.672346
3184.890278,77.672346
3184.890556,77.672346
3184.890833,77.672346
3184.891111,77.672346
3184.891389,77.672346
3184.891667,77.672346
3184.891944,77.672346
3184.892222,77.672346
3184.8925,77.672346
3184.892778,77.672346
3184.893056,77.672346
3184.893333,77.672346
3184.893611,77.672346
3189.573889,59.660868
3194.572778,56.612176
3199.571944,54.860388
3204.570833,53.544127
3209.57,52.615002
3214.569167,51.772982
3219.568056,51.018068
3224.567222,51.114852
3229.566389,50.630932
3234.565278,50.292189
3239.564444,49.953445
3244.563611,49.653415
3249.5625,49.421134
3254.561667,49.275958
3259.560833,49.063034
3264.56,48.830752
3269.558889,48.617828
3274.558056,48.472652
3279.557222,48.317798
3284.556111,48.221014
3289.555278,48.056481
3294.554167,47.988733
3299.553333,47.88227
3304.5525,47.795165
3309.551389,47.669346
3314.550556,47.58224
3319.549444,47.4661
3324.548611,47.388673
3329.5475,47.272532
3334.546667,47.233819
3339.545556,47.16607
3344.544722,47.16607
3349.543889,47.137035
3354.542778,46.991859
3354.976944,46.991859
3354.979722,46.98218
3359.978611,46.720864
3364.977778,46.604723
3369.976667,46.478904
3374.975833,46.536975
3379.975,46.527296
3384.973889,46.478904
3389.973056,46.353085
3394.971944,46.38212
3400.668611,74.52687
3400.668889,74.52687
3400.669167,74.52687
3400.669444,74.52687
3400.669722,74.52687
3400.67,74.52687
3400.670278,74.52687
3400.670556,74.52687
3400.670833,74.52687
3400.671111,74.52687
3400.671389,74.52687
3400.671667,74.52687
3400.671944,74.52687
3400.672222,74.52687
3400.6725,74.52687
3400.672778,74.52687
3400.673056,74.52687
3400.673333,74.52687
3400.673611,74.52687
3400.673889,74.52687
3400.674167,74.52687
3405.673333,48.1823
3410.672222,47.756451
3415.671389,47.495135
3420.670556,47.504813
3430.008333,82.124404
3430.008611,82.124404
3430.008889,82.124404
3430.009167,82.124404
3430.009444,82.124404
3430.009722,82.124404
3430.01,82.124404
3430.010278,82.124404
3430.010556,82.124404
3430.010833,82.124404
3430.011111,82.124404
3430.011389,82.124404
3430.011667,82.124404
3430.011944,82.134083
3430.012222,82.134083
3430.0125,82.134083
3430.012778,82.134083
3430.013056,82.134083
3430.013333,82.134083
3430.013611,82.134083
3430.013889,82.134083
3435.013056,52.063334
3440.012222,50.495435
3445.011111,49.643737
3450.010278,49.014642
3455.009167,48.540401
3460.008333,48.12423
3465.0075,47.804843
