time,pressure
0.0,13.126449
1.416667,27.682743
3.683333,54.444452
5.616667,83.823196
6.85,112.554456
9.683333,139.804923
11.7,159.342683
13.833333,162.198775
15.316667,157.978999
17.866667,151.233163
18.85,140.980847
21.866667,130.273647
23.916667,121.94346
25.6,111.432731
27.85,106.368031
30.3,102.224713
31.45,99.164407
33.783333,96.219274
35.833333,93.215103
37.633333,91.179738
39.733333,89.244061
41.7,86.829303
43.7,83.994503
45.8,81.247777
47.8,78.625902
49.75,76.171463
52.0,73.716056
54.033333,71.072889
55.85,69.078173
57.983333,67.600283
59.866667,66.172721
61.5,64.658054
64.05,63.302112
65.75,62.08457
67.85,61.131249
69.916667,60.086951
71.983333,59.002004
73.883333,57.659612
76.116667,56.352062
77.733333,54.920628
80.083333,53.390475
82.166667,51.93291
84.0,50.707626
86.133333,49.620743
88.416667,48.667422
90.05,48.048973
91.933333,47.555376
94.25,47.201147
96.433333,46.945637
97.766667,46.836271
100.15,46.743359
102.466667,46.628186
104.033333,46.390098
106.65,46.086196
108.166667,45.745517
110.05,45.363221
112.4,44.881237
114.533333,44.286016
116.466667,43.515617
118.416667,42.719085
120.633333,41.878034
122.4,41.056339
124.866667,40.23174
126.45,39.617162
128.483333,39.13905
130.4,38.747075
132.816667,38.43156
134.483333,38.185729
136.683333,37.963126
138.5,37.735684
140.0,37.541148
142.483333,37.314674
144.516667,37.071747
146.716667,36.839465
149.033333,36.646865
150.483333,36.541371
152.683333,36.107779
166.65,35.549336
168.65,35.110905
171.8,35.044124
173.15,34.924112
175.116667,34.823457
176.816667,34.73248
179.166667,34.659892
181.166667,36.311025
183.6,42.713278
184.766667,50.193704
186.833333,55.133553
189.116667,56.161397
196.05,53.180454
196.966667,47.192436
198.633333,41.921586
201.466667,38.194439
203.616667,36.343932
205.45,35.449649
207.666667,34.675378
209.7,34.054025
210.85,33.602045
213.15,33.040698
215.7,32.575168
217.066667,32.256749
218.8,32.033178
220.633333,31.74573
223.6,31.520224
225.483333,31.32472
227.45,31.129217
229.45,30.902743
231.416667,30.696593
235.933333,30.563031
237.816667,30.475926
239.833333,30.427534
241.8,30.38882
243.816667,30.352042
245.85,30.280422
247.416667,30.180735
250.1,30.097501
251.866667,30.71595
253.916667,32.936172
257.9,35.520301
259.566667,36.781395
267.066667,36.874307
267.95,35.344154
270.916667,33.248784
272.15,31.768958
273.933333,31.170834
276.066667,30.695625
277.716667,30.249451
280.066667,29.919418
281.716667,29.615517
284.033333,29.330005
286.2,28.97384
287.95,28.676714
290.533333,28.430882
292.916667,28.214087
294.05,28.019551
296.65,27.856954
298.1,27.700164
300.416667,27.551117
301.716667,27.382713
304.6,27.242377
306.033333,27.10204
308.5,27.002353
309.95,26.865887
312.5,26.712969
314.083333,26.556179
316.133333,26.470041
318.616667,26.10807
332.416667,25.664799
333.983333,25.344445
336.883333,25.327024
338.6,25.283471
342.05,25.259275
342.6,25.237015
344.6,25.218626
346.183333,25.199269
348.75,25.176041
350.7,25.130552
352.5,25.077321
354.55,25.003766
356.533333,24.922467
359.0,24.832458
360.4,24.770516
362.7,24.692122
364.433333,24.597273
367.633333,24.504361
368.783333,24.467583
370.733333,24.444355
373.0,24.465647
373.783333,24.516943
376.083333,24.608887
377.65,24.694057
379.716667,24.75987
380.583333,24.840201
383.45,24.918596
385.466667,24.980537
387.483333,24.993119
389.85,25.012476
392.433333,25.028929
394.416667,25.038608
396.016667,25.031833
397.8,25.013444
399.4,24.969891
401.683333,24.917628
403.6,24.841169
405.666667,24.753095
407.966667,24.659215
409.65,24.566302
411.65,24.472422
413.766667,24.384349
415.766667,24.314664
418.066667,24.240141
419.7,24.171424
421.816667,24.105611
423.75,24.04367
425.783333,23.978824
427.5,23.928497
429.65,23.891719
431.716667,23.861716
433.766667,23.825906
435.083333,23.786224
438.15,23.749447
439.733333,23.696215
441.6,23.630402
444.15,23.5733
445.85,23.526844
447.75,23.475548
449.783333,23.421349
451.75,23.381668
453.8,23.347794
456.016667,23.314887
457.716667,23.275206
460.033333,23.230685
462.066667,23.180357
463.866667,23.13003
465.8,23.082606
468.7,23.048731
470.35,23.024535
471.916667,22.9955
473.8,22.949044
476.1,22.898716
478.183333,22.859035
480.083333,22.824193
481.75,22.788383
484.366667,22.752573
486.1,22.721602
488.05,22.690631
489.566667,22.678049
491.916667,22.684824
493.833333,22.726441
496.55,22.798061
498.133333,22.878392
499.0,22.991629
501.933333,23.134869
504.25,23.28682
506.683333,23.372957
508.4,23.415542
509.633333,23.436835
512.266667,23.453288
514.583333,23.454256
515.633333,23.965275
518.1,25.635764
520.4,27.631448
522.35,28.695102
524.133333,29.441306
526.15,29.971682
527.7,30.256226
530.833333,29.842959
532.383333,28.227636
534.166667,26.925893
536.4,26.249374
538.416667,25.813847
540.466667,25.50317
542.416667,25.269921
544.333333,25.04635
546.35,24.868268
548.4,24.716317
550.45,24.604048
552.05,24.488875
554.083333,24.360153
556.183333,24.215945
558.45,24.090126
560.8,23.990438
562.033333,23.911076
564.483333,23.853973
566.4,23.804613
568.316667,23.758157
570.566667,23.711701
571.816667,23.65847
574.483333,23.607174
575.7,23.538458
579.033333,23.482323
580.9,23.435867
582.933333,23.398121
585.383333,23.354568
586.683333,23.321662
589.366667,23.296498
590.583333,23.271334
592.45,23.245203
595.083333,23.217135
596.5,23.185197
598.383333,23.148419
600.716667,23.11648
602.35,23.085509
604.6,23.05841
606.716667,23.034214
608.683333,23.016793
610.9,22.996468
612.516667,22.971304
614.35,22.945173
616.666667,22.919041
618.65,22.893877
620.533333,22.866778
622.833333,22.839678
624.483333,22.804836
626.833333,22.765155
628.8,22.733216
629.1,22.703213
632.666667,22.670306
634.783333,22.636432
636.95,22.61514
638.583333,22.594815
640.516667,22.570619
643.083333,22.54352
644.733333,22.522227
646.683333,22.508677
648.333333,22.49416
650.933333,22.48061
652.866667,22.473835
655.066667,22.475771
657.516667,22.438025
670.866667,22.347048
672.85,22.259943
675.566667,22.239618
676.85,22.222197
679.05,22.209615
681.4,22.198969
682.533333,22.191226
685.3,22.188323
686.283333,23.389411
689.5,27.148496
690.783333,32.32353
692.783333,34.565044
701.75,33.900139
703.333333,31.450539
705.016667,29.822635
708.633333,29.244835
708.916667,28.931255
711.15,29.638745
713.05,34.257272
714.966667,41.122152
717.066667,42.171289
725.683333,38.302837
727.433333,33.624305
728.983333,32.328369
731.266667,31.349884
733.666667,30.804991
735.183333,35.143812
736.85,42.580685
739.066667,45.911985
748.933333,42.062891
749.3,38.461563
751.25,35.133166
