time,pressure
0.0,74.803527
0.200556,74.503497
0.389167,74.253795
0.593889,73.953765
0.795278,73.683738
0.998889,73.404032
1.2025,73.123359
1.396389,72.873657
1.598056,72.60363
1.785,72.363606
2.001944,72.0839
2.206667,71.834198
2.393889,71.603852
2.594444,71.363828
2.778333,71.204135
2.956111,70.934108
3.183889,70.643756
3.390278,70.413411
3.6025,70.173387
3.79,69.963366
4.011667,69.723342
4.199722,69.513321
4.4025,69.3033
4.585,69.103925
4.788889,68.884226
5.009722,68.65388
5.198056,68.473862
5.403056,68.263841
5.590556,68.093501
5.7925,67.894127
6.003611,67.684106
6.220556,67.493441
6.462778,67.273742
6.654722,67.103402
6.878889,66.883703
7.0675,66.713363
7.268611,66.543992
7.453056,66.38333
7.655278,66.213959
7.879444,66.043619
8.065556,65.893604
8.276389,65.724232
8.468056,65.574217
8.685556,65.263541
8.892778,64.773815
9.125556,63.684028
9.331667,62.30389
9.523056,60.953755
9.729722,60.213358
9.933889,60.163999
10.278333,60.123349
10.495,60.063343
10.725833,59.943331
10.945278,59.90365
11.136389,59.85429
11.358889,59.824287
11.618611,59.633623
11.866667,59.593942
12.085278,59.503933
12.268889,59.284233
12.4825,59.203903
12.611389,59.1739
12.791389,59.153575
13.050833,59.134218
13.264167,59.104215
13.458056,59.093569
13.649444,59.00356
13.876667,58.793539
14.068333,58.513834
14.264722,57.953455
14.459167,57.514056
14.653056,57.064011
14.878889,56.323615
15.072222,56.023585
15.2675,55.494177
15.466111,55.014129
15.665278,54.504078
15.874722,54.423747
16.065556,54.234051
16.259722,53.833366
16.451389,53.784006
16.616111,53.743357
16.801944,53.433648
17.013611,53.054255
17.211944,52.433871
17.439444,52.193847
17.656389,51.633468
17.871111,51.173745
18.063056,50.823387
18.256111,50.434316
18.465,50.353985
18.658611,50.224295
18.866667,50.233973
19.060833,50.243652
19.259722,50.243652
19.458056,50.233973
19.650556,50.233973
19.877778,50.224295
20.073056,50.153643
20.267222,49.954268
20.4575,49.853613
20.651944,49.744247
20.949167,49.354208
21.1475,49.103538
21.339444,48.943844
21.472222,48.964169
21.668056,48.793829
21.876944,48.544127
22.070833,48.544127
22.268611,48.563484
22.465,48.593487
22.658889,48.40379
22.866944,48.433793
23.06,48.463796
23.251944,48.484121
23.463889,48.523802
23.654167,48.544127
23.868056,48.413469
24.059722,48.443472
24.257222,48.193769
24.45,48.034076
24.661111,47.693397
24.866389,47.193992
25.063889,46.764272
25.255556,46.104206
25.403889,45.663839
25.586389,45.063779
25.789444,44.114329
26.007778,43.253921
26.203056,42.494167
26.397778,42.213494
26.5925,41.933789
26.792778,41.744092
27.0,41.864104
27.201389,41.663762
27.395556,41.763449
27.589722,41.883461
27.785278,41.864104
27.995,42.003473
28.186944,42.113807
28.381111,42.123485
28.588056,42.213494
28.785833,42.344152
28.9925,42.2735
29.189167,42.383834
29.3825,42.434161
29.577222,42.194137
29.788889,42.203816
29.998056,41.603756
30.193056,40.64366
30.3875,39.403858
30.583611,38.644105
30.782222,38.233741
30.998056,37.973393
31.191389,38.083726
31.389722,38.273423
31.583056,38.333429
31.791944,38.513447
32.006111,38.713789
32.201944,38.813477
32.398889,39.004141
32.528611,39.124153
32.719444,39.313849
32.928611,39.514192
33.120278,39.69421
33.313333,39.883906
33.522222,40.093927
33.726389,40.283624
33.928333,40.463642
34.276944,40.654306
34.517222,40.874005
34.719722,40.793675
34.986944,40.853681
35.198889,40.613657
35.381667,40.273945
35.588056,39.844225
35.794444,39.8239
36.001389,39.244165
36.195556,39.203516
36.387778,39.113507
36.517222,39.013819
36.71,38.974138
36.940278,38.773795
37.134444,38.974138
37.326111,38.79412
37.503889,38.603456
37.713889,38.593777
37.940278,38.413759
38.135278,38.563774
38.34,38.314072
38.531389,38.374078
38.724722,38.32375
38.870278,38.153411
39.063889,38.213417
39.260833,37.924033
39.451667,37.884351
39.644444,37.473988
39.868611,37.194282
40.065556,37.023943
40.261944,36.793597
40.456111,37.044267
40.6475,36.913609
40.873611,36.903931
41.025,37.083949
41.193611,36.924255
41.388333,36.853603
41.579167,37.104273
41.796944,36.873928
42.003056,36.963937
42.200556,36.873928
42.388889,36.69391
42.590833,36.813922
42.785278,36.663907
42.998611,36.813922
43.193889,36.553573
43.326667,36.594222
43.528611,36.463564
43.7275,35.943835
43.945278,35.283769
44.1375,34.873405
44.335556,34.5937
44.529167,34.903408
44.7275,34.914054
44.936667,35.143432
45.065833,35.343775
45.262778,35.533471
45.455556,35.703811
45.650833,35.784141
45.859444,36.09385
45.977222,36.294192
46.185278,36.543895
46.39,36.873928
46.590556,37.063624
46.777222,37.353976
46.994722,37.633681
47.204722,37.753693
47.387778,38.02372
47.591111,37.984039
47.793056,37.914354
47.9925,37.72369
48.194444,37.314294
48.330556,37.113952
48.52,36.333874
48.726667,35.163757
48.934444,34.413682
49.14,33.893952
49.324167,33.483589
49.527778,33.04419
49.715556,33.074193
49.939722,32.924178
50.185278,32.74416
50.348889,32.823523
50.591944,32.87385
50.772778,32.913532
50.991667,33.164202
51.197778,33.374223
51.388889,33.614247
51.586111,33.884274
51.781667,34.143655
51.996111,34.424328
52.191389,34.664352
52.388611,36.09385
52.585833,38.143732
52.785278,40.453963
53.006944,41.97347
53.194722,43.394257
53.403056,43.934311
53.647778,44.54405
53.871667,42.584176
54.155,42.173813
54.426667,42.323828
54.604444,41.763449
54.784167,41.453741
54.930833,41.183714
55.136667,40.813999
55.315833,40.513969
55.520556,40.133609
55.713611,39.833579
55.941389,39.503546
56.126111,39.193837
56.328611,38.914132
56.513889,38.554096
56.721389,38.203738
56.941944,37.663684
57.086389,37.213639
57.2575,36.463564
57.458611,35.454108
57.6675,36.123853
57.845278,36.594222
58.001111,36.583576
58.331389,34.953736
58.536111,34.214307
58.725556,33.94428
58.941111,33.513592
59.131111,33.453586
59.292778,33.413904
59.463889,33.233886
59.718333,32.913532
59.944444,32.74416
60.128889,34.424328
60.33,34.223985
60.5175,33.94428
60.726389,33.614247
60.928056,35.263444
61.19,35.814144
61.400833,35.57412
61.584444,35.253766
61.785833,35.184081
62.003333,37.07427
62.191111,37.42366
62.415833,36.583576
62.658056,35.57412
62.878056,34.203661
63.065,34.664352
63.266389,34.154301
63.397778,33.383901
63.583056,32.834169
63.785556,34.734036
64.006944,35.833501
64.194444,35.533471
64.397778,35.263444
64.591389,34.514337
64.799167,34.143655
65.007222,33.434229
65.255,33.083871
65.463333,32.534139
65.646667,32.783841
65.864167,34.824045
66.064722,36.333874
66.248889,36.324195
66.451389,35.733814
66.653889,35.263444
66.872778,35.064069
67.057222,34.923733
67.259444,34.473688
67.448333,34.404003
67.650278,34.173658
67.783056,34.043967
67.999722,34.634349
68.187222,34.884051
68.3925,34.404003
68.596944,34.394325
68.7875,34.843402
69.005,33.513592
69.189722,32.654151
69.391667,34.023643
69.583056,33.383901
69.787222,32.864172
70.009444,33.614247
70.194167,34.464009
70.396944,34.004286
70.580833,33.653928
70.785278,34.083649
71.001667,35.893507
71.189722,35.743492
71.391667,35.544117
71.579444,35.203438
71.755833,34.5937
71.926111,36.423883
72.128611,37.243642
72.311667,36.273868
72.512778,35.244087
72.7175,35.373778
72.935,36.163534
73.101389,36.283546
73.251667,33.99364
73.4525,32.693832
73.656667,32.864172
73.8725,34.824045
74.0725,36.204183
74.259167,37.453663
74.471667,38.803798
74.655833,40.033921
74.876389,41.444062
75.065,42.533849
75.269167,43.784296
75.414444,44.54405
75.583333,45.553505
75.783611,42.884206
75.983611,41.633759
76.186111,41.014342
76.3875,40.453963
76.587778,39.913909
76.791389,39.44354
76.995,38.963492
77.204167,38.503768
77.386944,38.123408
77.588056,37.684009
77.805278,37.213639
78.043611,36.723913
78.249444,36.264189
78.454167,35.853826
78.660556,35.253766
78.863333,36.433561
79.068333,38.074048
79.255556,39.313849
79.459167,40.474288
79.645556,41.24372
79.8625,41.723768
80.063056,42.123485
80.251944,40.474288
80.464722,39.193837
80.653333,38.563774
80.883056,37.704333
81.071389,37.194282
81.280556,36.594222
81.471944,36.063847
81.722778,35.383456
81.95,34.933411
82.250278,36.163534
82.453889,39.943912
82.656389,41.504068
82.8675,42.8242
83.065278,44.103683
83.261667,42.044122
83.4625,42.194137
83.659444,41.643437
83.881667,40.804321
84.080556,39.934234
84.281667,39.09415
84.480833,38.303426
84.678333,37.67433
84.890278,36.804243
85.121111,36.243865
85.323889,36.573898
85.520833,36.264189
85.718889,36.363877
85.938611,36.084171
86.109167,35.893507
86.275,36.084171
86.426111,36.303871
86.607778,36.553573
86.819444,36.753916
87.065,36.463564
87.265278,36.453886
87.464167,36.594222
87.660833,36.663907
87.874167,36.193537
88.074167,36.213862
88.276944,35.883829
88.481111,36.373555
88.685,36.313549
88.950556,36.054168
89.196944,36.333874
89.393889,36.343552
89.596111,36.294192
89.792778,36.663907
90.0125,37.014264
90.213333,36.954258
90.416389,36.933934
90.649444,37.023943
90.878611,37.404303
91.078333,37.07427
91.275,36.99394
91.473056,37.143955
91.668889,36.69391
91.882778,35.823823
92.115833,34.524015
92.330556,33.77394
92.467222,34.754361
92.674722,35.973838
92.945278,35.973838
93.126389,36.984261
93.3925,37.864027
93.586389,37.254288
93.876944,36.673585
94.075278,36.47421
94.268889,36.453886
94.449722,36.444207
94.596944,36.433561
94.791389,36.294192
95.046389,36.09385
95.259722,36.073525
95.4775,36.073525
95.678056,36.073525
95.901667,36.043522
96.126944,36.043522
96.340833,36.013519
96.513056,35.913832
96.719167,35.784141
96.934722,36.954258
97.134167,38.284069
97.336389,38.374078
97.537222,38.074048
97.735833,37.624003
97.946111,36.913609
98.189167,36.09385
98.410556,35.683486
98.611389,34.833724
98.883611,35.983516
99.140278,36.684231
99.355833,37.704333
99.601111,38.773795
99.809167,39.803576
100.063611,38.093405
100.247778,38.263744
100.456944,38.293747
100.586389,38.443762
100.784444,38.344075
101.045278,38.644105
101.254722,38.483444
101.452222,38.374078
101.647222,38.263744
101.868333,38.314072
102.08,38.164057
102.266944,38.02372
102.468611,37.903708
102.656389,37.744015
102.874444,37.973393
103.061667,37.903708
103.270556,37.644327
103.453611,37.383979
103.664167,37.543672
103.864444,37.173958
104.065833,36.52357
104.248889,35.694132
104.453889,34.694355
104.658056,33.753616
104.860278,33.134199
105.065278,32.693832
105.249444,32.583499
105.455,32.534139
105.656389,32.763517
105.873611,33.213562
106.069722,32.963859
106.397222,33.203883
106.600556,33.413904
106.7475,33.383901
106.932222,33.513592
107.135278,33.314217
107.319444,32.943535
107.519722,32.933856
107.722222,31.904076
107.939444,31.294338
108.123333,30.994308
108.328611,31.313694
108.512222,31.484034
108.7125,31.943757
108.936389,31.994085
109.139444,32.294115
109.326944,32.783841
109.528333,33.314217
109.712222,33.69361
109.928889,33.683931
110.134722,33.674253
110.321389,33.963637
110.523333,34.263667
110.725833,34.343997
110.985278,33.974283
111.184167,33.34422
111.395278,33.254211
111.588889,34.064292
111.780833,33.383901
111.994167,33.194205
112.205556,34.274313
112.385556,34.29367
112.597778,33.153556
112.778889,32.79352
113.006389,32.603823
113.154444,32.373478
113.515,31.634049
113.732222,31.823745
113.938611,33.363577
114.147222,34.424328
114.335556,35.27409
114.539722,36.534216
114.724167,36.024165
114.946667,35.593477
115.130556,35.394102
115.331944,34.953736
115.516944,34.923733
115.7925,35.544117
115.993333,35.343775
116.194444,35.27409
116.396944,34.944057
116.583333,34.843402
116.784444,34.694355
117.002778,34.563697
117.190278,33.94428
117.391944,33.143877
117.593056,33.983961
117.803333,34.89373
118.070278,33.794265
118.35,33.333574
118.641667,33.423583
119.0225,33.753616
119.31,34.233664
119.688056,34.253988
119.996944,34.614024
120.294722,34.304316
120.556111,34.484334
120.859167,34.503691
121.221944,34.833724
121.550556,34.903408
121.904167,34.533694
122.216111,34.394325
122.570278,34.434006
122.910556,34.064292
123.188333,33.824268
123.561667,33.933634
123.866944,33.183559
124.23,32.663829
124.463611,32.204106
124.675833,31.994085
124.891667,32.79352
125.122222,33.423583
125.316111,33.383901
125.528611,33.603601
125.725556,34.184304
125.941111,33.933634
126.141944,34.214307
126.358333,34.443685
126.616389,34.713712
126.910833,34.773718
127.206111,34.644027
127.410833,34.07397
127.660278,34.223985
127.873333,33.923955
128.065556,33.713934
128.259444,34.094295
128.455,33.603601
128.6475,33.524238
128.875833,34.07397
129.069722,33.794265
129.264722,34.113652
129.459444,34.863727
129.656111,34.873405
129.871389,34.933411
130.070556,35.553796
130.4075,35.87415
130.608056,36.09385
130.804444,36.703588
130.985556,36.973615
131.196111,36.99394
131.398333,37.594
131.600278,37.854348
131.798333,37.963714
132.005278,38.743792
132.199444,38.914132
132.391111,39.013819
132.5875,39.44354
132.779167,39.853903
132.995833,39.563552
133.200833,39.913909
133.388056,39.454186
133.589444,38.734114
133.790278,38.183414
133.989444,37.973393
134.190833,37.213639
134.392222,37.413982
134.597778,37.314294
134.785833,37.29397
135.014167,37.94339
135.200278,37.42366
135.404167,37.473988
135.588333,37.594
135.789444,37.654006
136.006944,37.72369
136.19,37.94339
136.391389,37.954036
136.600278,37.963714
136.784444,38.49409
136.947222,38.813477
137.19,38.254066
137.464167,38.503768
137.669167,38.203738
137.878056,37.914354
138.070278,37.494312
138.264167,37.153633
138.455833,36.963937
138.65,36.553573
138.876667,36.504213
139.071111,36.354198
139.264722,36.384201
139.459167,36.513892
139.655833,36.423883
139.868056,36.733591
140.077778,36.723913
140.252778,36.714234
140.460556,36.504213
140.654444,36.333874
140.878611,36.163534
141.075278,35.733814
141.2675,35.364099
141.468056,34.873405
141.662222,34.873405
141.873333,34.683709
142.066944,34.443685
142.261667,34.604346
142.453333,34.644027
142.646389,34.644027
142.870556,34.374
143.064167,34.163979
143.259444,34.113652
143.453611,33.743937
143.666111,33.194205
143.8775,32.603823
144.084167,32.783841
144.280278,32.783841
144.471667,32.613502
144.668333,32.693832
144.881944,32.564142
145.076944,32.594145
145.268889,32.384124
145.461667,32.433484
145.653333,32.643505
145.866111,32.463487
146.073333,32.594145
146.253056,32.843847
146.470278,33.213562
146.646944,33.34422
146.793333,33.374223
147.004444,33.573598
147.197778,33.99364
147.388056,34.334319
147.581389,34.724358
147.793056,35.253766
148.006389,35.433784
148.201111,35.694132
148.398889,35.853826
148.594722,36.024165
148.796111,35.934156
149.009722,35.803498
149.209444,35.563474
149.4025,35.043745
149.604444,34.364322
149.8125,33.713934
150.061389,33.233886
150.263056,32.963859
150.459722,32.954181
150.656389,32.894175
150.873611,33.34422
151.069722,33.593922
151.260833,33.713934
151.454444,33.99364
151.663333,34.214307
151.888056,34.24431
152.132222,34.394325
152.325556,34.664352
152.528333,35.064069
152.688333,34.923733
152.880833,34.833724
153.114722,34.614024
153.328611,33.483589
153.536667,32.883529
153.725,32.774163
153.942222,32.27379
154.061389,32.774163
154.418611,32.864172
154.607778,33.053868
154.810833,32.823523
155.06,32.594145
155.267222,32.853526
155.460833,32.843847
155.669722,33.194205
155.879167,32.883529
156.124722,32.774163
156.334722,32.483811
156.528889,32.594145
156.735,32.763517
156.937778,32.913532
157.144722,33.293892
157.331111,33.533916
157.540556,33.284214
157.729167,33.563919
157.955,33.233886
158.186111,33.17388
158.393889,33.17388
158.601667,33.194205
158.788333,32.804166
159.007222,32.264112
159.191389,31.863427
159.399444,31.514037
159.587778,31.664052
159.796667,31.264335
160.0025,31.424028
160.215,31.604046
160.398333,31.654374
160.605833,32.1441
160.790278,32.153778
161.02,32.384124
161.266111,32.44413
161.457222,32.654151
161.670278,33.023865
161.890556,33.743937
162.133611,33.824268
162.321667,34.113652
162.534722,34.274313
162.6725,34.794042
162.866111,35.02342
163.08,35.173435
163.255833,35.433784
163.467778,35.653483
163.6475,35.853826
163.8725,36.073525
164.0725,36.493567
164.330278,36.463564
164.554722,36.354198
164.8075,36.153856
165.082222,35.263444
165.271111,34.473688
165.476111,33.884274
165.655278,33.623925
165.876111,33.47391
166.073056,33.824268
166.264167,33.903631
166.468611,34.214307
166.658889,34.413682
166.876111,34.514337
167.073611,34.67403
167.2725,34.734036
167.463333,34.963414
167.661944,35.073748
167.871944,35.103751
168.072778,35.383456
168.264167,35.473465
168.457778,35.593477
168.6025,35.62348
168.802222,34.903408
169.068056,33.983961
169.283889,32.463487
169.476944,31.504359
169.688889,31.154001
169.986389,31.983439
170.180278,31.863427
170.397222,31.754061
170.601667,31.904076
170.795556,31.84407
171.021389,32.243787
171.248611,32.583499
171.470556,32.74416
171.681389,32.913532
171.889722,32.963859
172.125278,33.243565
172.318611,33.413904
172.528889,33.674253
172.741667,33.813622
172.941389,33.34422
173.158056,32.924178
173.384167,32.234109
173.596944,32.133454
173.807778,32.19346
174.008611,32.324118
174.216944,32.463487
174.401111,32.363799
174.605556,32.49349
174.794167,32.79352
175.011944,32.984184
175.1975,33.293892
175.403056,33.563919
175.587222,33.753616
175.787222,34.263667
176.004722,34.694355
176.195833,35.013742
176.3975,35.203438
176.583611,35.203438
176.795278,35.064069
177.017222,34.464009
177.205278,34.053646
177.410833,33.243565
177.602778,32.79352
177.808056,32.363799
178.067778,32.213784
178.408056,32.123775
178.561944,31.634049
178.796389,31.883751
179.003889,32.003763
179.21,31.983439
179.398611,32.073448
179.604444,32.294115
179.793889,32.603823
180.016389,32.913532
180.204444,33.203883
180.414167,33.743937
180.606667,34.103973
180.816111,34.24431
181.052222,34.313994
181.265278,34.563697
181.464722,34.813399
181.660556,35.32345
181.873333,35.904153
182.068611,36.283546
182.266944,36.624225
182.458889,36.783919
182.659444,36.624225
182.866111,36.77424
183.063611,36.714234
183.264444,36.573898
183.47,36.553573
183.665278,36.003841
183.884167,36.313549
184.088333,35.994162
184.335278,35.613802
184.533056,35.124075
184.667222,35.304093
184.885278,34.754361
185.119167,33.884274
185.323333,33.77394
185.523889,33.39358
185.730556,33.653928
185.940833,33.543595
186.135556,33.353898
186.3275,33.584244
186.525278,33.653928
186.718611,33.794265
186.945833,33.99364
187.144722,33.99364
187.343333,34.313994
187.538611,34.584021
187.737222,34.683709
187.989167,34.413682
188.198056,33.833946
188.392778,33.233886
188.584722,32.723835
188.789722,32.084094
189.000278,31.724058
189.200278,31.853748
189.391667,31.654374
189.589167,32.054091
189.799722,32.333796
190.011389,32.504136
190.204167,32.564142
190.405278,32.663829
190.596944,32.973538
190.791111,33.213562
190.999167,33.113874
191.2,33.633604
191.391667,33.884274
191.587222,33.783619
191.796667,33.39358
192.009167,32.954181
192.204167,32.594145
192.401944,32.223463
192.593889,32.264112
192.787778,32.523493
192.994444,32.513814
193.199722,32.79352
193.413889,33.203883
193.673056,33.494235
193.911111,33.464232
194.160556,34.173658
194.419167,34.184304
194.573056,34.584021
194.851389,34.604346
195.128889,35.32345
195.365833,35.373778
195.614167,35.934156
195.873611,36.103528
196.141111,35.544117
196.400278,34.97406
196.628889,33.753616
196.903333,33.584244
197.156389,33.123553
197.400278,33.153556
197.635556,33.39358
197.905,33.273568
198.158056,33.423583
198.424444,33.813622
198.689167,33.69361
198.981944,34.413682
199.275833,34.54434
199.621111,34.704033
199.931389,35.203438
200.298056,35.034066
200.593889,35.034066
200.982778,33.99364
201.313611,33.284214
201.623333,32.414127
201.999167,32.44413
202.423056,33.323895
202.668333,32.853526
202.959722,32.823523
203.212778,32.393802
203.455833,32.063769
203.669167,32.223463
203.878056,32.783841
204.071667,33.074193
204.268611,32.903853
204.463889,33.263889
204.658889,33.453586
204.866944,33.533916
205.059722,33.573598
205.257222,33.353898
205.4525,33.39358
205.620556,33.854271
205.789444,34.013964
206.010833,34.143655
206.199444,34.383679
206.400833,34.634349
206.595556,35.094072
206.8075,35.653483
207.0525,35.883829
207.26,36.043522
207.465278,35.913832
207.655278,35.934156
207.876667,35.653483
208.0875,35.27409
208.275556,34.524015
