time,pressure
0.0,142.004881
0.01,141.834672
0.02,141.796184
0.03,141.776246
0.04,141.763025
0.05,141.753211
0.06,141.745384
0.07,141.738873
0.08,141.733268
0.09,141.728294
0.101111,141.72345
0.113333,141.718616
0.127222,141.713521
0.142778,141.708432
0.16,141.703172
0.179444,141.697701
0.201389,141.692026
0.226111,141.686111
0.253611,141.679934
0.284722,141.673479
0.319444,141.666729
0.358333,141.659672
0.401944,141.652297
0.451111,141.644594
0.506111,141.636552
0.567778,141.628166
0.637222,141.619423
0.715,141.610335
0.802222,141.600854
0.9,141.590979
1.009722,141.58054
1.133056,141.569843
1.271389,141.559037
1.426389,141.547172
1.600556,141.535006
1.795833,141.522615
2.014722,141.50945
2.260833,141.495797
2.536667,141.481562
2.846111,141.466717
3.193333,141.45123
3.583056,141.435068
4.020278,141.4182
4.510556,141.400593
5.061111,141.382218
5.678611,141.363048
6.371389,141.343061
7.148889,141.32224
8.021389,141.300573
9.0,141.278056
10.098056,141.25469
11.330278,141.230484
12.712778,141.205452
14.264167,141.179617
16.004444,141.153004
17.957222,141.125643
20.148611,141.097569
22.606944,141.06882
25.365556,141.039433
28.460556,141.009449
31.933333,140.978909
35.829722,140.947851
40.201389,140.916316
45.106944,140.884341
50.610833,140.851963
56.786111,140.819215
63.715,140.786132
71.489444,140.752741
80.2125,140.719072
90.0,140.685152
100.981667,140.651004
113.303333,140.616651
127.128333,140.582112
142.640278,140.547406
160.045278,140.51255
179.573611,140.47756
201.173611,140.44292
222.773611,140.411726
231.386667,140.400103
240.0,140.388896
240.01,140.441255
240.02,140.453085
240.03,140.459207
240.044167,140.464562
240.064722,140.469627
240.095,140.47456
240.139167,140.479604
240.204444,140.48512
240.3,140.491421
240.440278,140.498687
240.646389,140.507015
240.948611,140.516488
241.3925,140.527159
242.043889,140.539247
243.0,140.552829
244.403333,140.5681
246.463333,140.58516
249.486944,140.603893
253.924722,140.623828
260.438889,140.644061
270.0,140.663281
284.033889,140.679837
304.633056,140.691825
326.233056,140.69661
347.833056,140.697224
353.916389,140.696915
360.0,140.696444
360.01,140.676804
360.02,140.672362
360.03,140.67006
360.044167,140.668044
360.064722,140.666133
360.095,140.664266
360.139167,140.662349
360.204444,140.660244
360.3,140.657826
360.440278,140.655022
360.646389,140.651781
360.948611,140.648056
361.3925,140.643801
362.043889,140.638896
363.0,140.633255
364.403333,140.626721
366.463333,140.619134
369.486944,140.610351
373.924722,140.600276
380.438889,140.588836
390.0,140.575918
404.033889,140.561262
424.633056,140.544348
446.233056,140.529642
467.833056,140.516708
489.433056,140.504937
511.033056,140.494007
532.633056,140.483732
554.233056,140.473991
575.833056,140.464702
597.433056,140.455806
598.716389,140.455288
600.0,140.454772
600.01,140.435129
600.02,140.430684
600.03,140.428379
600.044167,140.426359
600.064722,140.424441
600.095,140.422564
600.139167,140.420634
600.204444,140.418508
600.3,140.416061
600.440278,140.413213
600.646389,140.409909
600.948611,140.406091
601.3925,140.401699
602.043889,140.396595
603.0,140.390667
604.403333,140.383717
606.463333,140.375535
609.486944,140.365909
613.924722,140.354657
620.438889,140.341614
630.0,140.326576
644.033889,140.309233
664.633056,140.2891
686.233056,140.271719
707.833056,140.25664
713.916389,140.252697
720.0,140.248865
720.01,140.275045
720.02,140.28096
720.03,140.284021
720.044167,140.286699
720.064722,140.289232
720.095,140.2917
720.139167,140.294222
720.204444,140.296981
720.3,140.300134
720.440278,140.303769
720.646389,140.307937
720.948611,140.312679
721.3925,140.318022
722.043889,140.324078
723.0,140.330886
724.403333,140.338548
726.463333,140.347116
729.486944,140.356539
733.924722,140.366589
740.438889,140.376826
750.0,140.386605
764.033889,140.395105
784.633056,140.401349
806.233056,140.40389
827.833056,140.404226
849.433056,140.403246
871.033056,140.401425
892.633056,140.39904
914.233056,140.396267
935.833056,140.393222
957.433056,140.389983
979.033056,140.386608
1000.633056,140.383137
1022.233056,140.379602
1043.833056,140.376025
1065.433056,140.372423
1072.716389,140.371205
1080.0,140.369987
1080.01,140.330706
1080.02,140.321822
1080.03,140.31722
1080.044167,140.313187
1080.064722,140.309365
1080.095,140.305631
1080.139167,140.301798
1080.204444,140.297588
1080.3,140.292755
1080.440278,140.287148
1080.646389,140.28067
1080.948611,140.273226
1081.3925,140.264725
1082.043889,140.25493
1083.0,140.243676
1084.403333,140.230663
1086.463333,140.215591
1089.486944,140.198227
1093.924722,140.178472
1100.438889,140.156371
1110.0,140.132043
1124.033889,140.105588
1144.633056,140.076989
1166.233056,140.053973
1187.833056,140.035106
1209.433056,140.018941
1231.033056,140.004683
1252.633056,139.991847
1274.233056,139.980113
1295.833056,139.969264
1317.433056,139.959141
1318.716389,139.95856
1320.0,139.95798
1320.01,140.010348
1320.02,140.022186
1320.03,140.028316
1320.044167,140.033683
1320.064722,140.038765
1320.095,140.043724
1320.139167,140.048804
1320.204444,140.054374
1320.3,140.060754
1320.440278,140.068136
1320.646389,140.076634
1320.948611,140.086356
1321.3925,140.097393
1322.043889,140.110016
1323.0,140.124379
1324.403333,140.140792
1326.463333,140.159514
1329.486944,140.180659
1333.924722,140.204072
1340.438889,140.229287
1350.0,140.255565
1364.033889,140.28197
1384.633056,140.307429
1406.233056,140.325229
1427.833056,140.337867
1433.916389,140.340782
1440.0,140.34347
1440.01,140.323835
1440.02,140.319398
1440.03,140.317102
1440.044167,140.315093
1440.064722,140.313192
1440.095,140.31134
1440.139167,140.309446
1440.204444,140.307375
1440.3,140.305006
1440.440278,140.302274
1440.646389,140.299139
1440.948611,140.295569
1441.3925,140.291541
1442.043889,140.286969
1443.0,140.281815
1444.403333,140.275993
1446.463333,140.269445
1449.486944,140.262175
1453.924722,140.254293
1460.438889,140.246016
1470.0,140.237621
1484.033889,140.229362
1504.633056,140.221356
1526.233056,140.215429
1547.833056,140.210754
1569.433056,140.206771
1591.033056,140.203202
1612.633056,140.199897
1634.233056,140.196768
1655.833056,140.193761
1677.433056,140.190844
1678.716389,140.190673
1680.0,140.190502
1680.01,140.170861
1680.02,140.166419
1680.03,140.164117
1680.044167,140.162101
1680.064722,140.160189
1680.095,140.15832
1680.139167,140.156401
1680.204444,140.154293
1680.3,140.151872
1680.440278,140.149061
1680.646389,140.145812
1680.948611,140.142075
1681.3925,140.137803
1682.043889,140.132873
1683.0,140.1272
1684.403333,140.120624
1686.463333,140.112989
1689.486944,140.104161
1693.924722,140.094071
1700.438889,140.082713
1710.0,140.070107
1724.033889,140.056244
1744.633056,140.04104
1766.233056,140.028609
1787.833056,140.018273
1793.916389,140.01563
1800.0,140.013083
1800.01,140.039265
1800.02,140.045182
1800.03,140.048246
1800.044167,140.050926
1800.064722,140.053464
1800.095,140.055937
1800.139167,140.058469
1800.204444,140.061242
1800.3,140.064414
1800.440278,140.068079
1800.646389,140.07229
1800.948611,140.077096
1801.3925,140.082532
1802.043889,140.088724
1803.0,140.095732
1804.403333,140.103686
1806.463333,140.112682
1809.486944,140.122731
1813.924722,140.133693
1820.438889,140.145254
1830.0,140.156948
1844.033889,140.168199
1864.633056,140.178355
1886.233056,140.184848
1907.833056,140.18899
1929.433056,140.191679
1951.033056,140.193396
1972.633056,140.194428
1994.233056,140.194955
2015.833056,140.1951
2037.433056,140.194947
2059.033056,140.194559
2080.633056,140.193981
2102.233056,140.193249
2123.833056,140.192389
2145.433056,140.191424
2152.716389,140.191077
2160.0,140.190722
2160.01,140.151442
2160.02,140.14256
2160.03,140.137958
2160.044167,140.133928
2160.064722,140.130108
2160.095,140.126377
2160.139167,140.12255
2160.204444,140.118348
2160.3,140.113525
2160.440278,140.107935
2160.646389,140.101481
2160.948611,140.094073
2161.3925,140.085624
2162.043889,140.075905
2163.0,140.064764
2164.403333,140.051915
2166.463333,140.037084
2169.486944,140.020073
2173.924722,140.000833
2180.438889,139.979481
2190.0,139.956242
2204.033889,139.931361
2224.633056,139.905019
2246.233056,139.884305
2267.833056,139.867678
2289.433056,139.853692
2311.033056,139.841555
2332.633056,139.830784
2354.233056,139.821064
2375.833056,139.812176
2397.433056,139.803965
2398.716389,139.803495
2400.0,139.803028
2400.01,139.855396
2400.02,139.867235
2400.03,139.873366
2400.044167,139.878734
2400.064722,139.883818
2400.095,139.88878
2400.139167,139.893864
2400.204444,139.899439
2400.3,139.905828
2400.440278,139.913222
2400.646389,139.921738
2400.948611,139.931486
2401.3925,139.942562
2402.043889,139.955241
2403.0,139.969688
2404.403333,139.986222
2406.463333,140.005123
2409.486944,140.026529
2413.924722,140.050323
2420.438889,140.076095
2430.0,140.103182
2444.033889,140.13076
2464.633056,140.157906
2486.233056,140.177434
2507.833056,140.19176
2513.916389,140.195144
2520.0,140.198297
2520.01,140.178662
2520.02,140.174226
2520.03,140.171931
2520.044167,140.169923
2520.064722,140.168024
2520.095,140.166174
2520.139167,140.164284
2520.204444,140.162217
2520.3,140.159856
2520.440278,140.157134
2520.646389,140.154015
2520.948611,140.150468
2521.3925,140.146474
2522.043889,140.141951
2523.0,140.13687
2524.403333,140.131155
2526.463333,140.124763
2529.486944,140.117721
2533.924722,140.110173
2540.438889,140.102383
2550.0,140.094697
2564.033889,140.087467
2584.633056,140.080943
2606.233056,140.076536
2627.833056,140.073348
2649.433056,140.07082
2671.033056,140.068675
2692.633056,140.066763
2714.233056,140.064998
2735.833056,140.063327
2757.433056,140.061719
2758.716389,140.061625
2760.0,140.061531
2760.01,140.04189
2760.02,140.037449
2760.03,140.035147
2760.044167,140.033131
2760.064722,140.031221
2760.095,140.029354
2760.139167,140.027438
2760.204444,140.025334
2760.3,140.022918
2760.440278,140.020116
2760.646389,140.016879
2760.948611,140.01316
2761.3925,140.008914
2762.043889,140.004024
2763.0,139.998407
2764.403333,139.991916
2766.463333,139.984402
2769.486944,139.975754
2773.924722,139.965927
2780.438889,139.954952
2790.0,139.942904
2804.033889,139.929853
2824.633056,139.915819
2846.233056,139.904593
2867.833056,139.895438
2873.916389,139.893124
2880.0,139.890904
2880.01,139.917086
2880.02,139.923004
2880.03,139.926068
2880.044167,139.928749
2880.064722,139.931288
2880.095,139.933763
2880.139167,139.936298
2880.204444,139.939074
2880.3,139.942251
2880.440278,139.945923
2880.646389,139.950146
2880.948611,139.954967
2881.3925,139.960427
2882.043889,139.966654
2883.0,139.973713
2884.403333,139.981742
2886.463333,139.990848
2889.486944,140.001058
2893.924722,140.012255
2900.438889,140.024159
2910.0,140.036355
2924.033889,140.048333
2944.633056,140.059541
2966.233056,140.067117
2987.833056,140.072321
3009.433056,140.076054
3031.033056,140.078797
3052.633056,140.080835
3074.233056,140.082351
3095.833056,140.083467
3117.433056,140.084269
3139.033056,140.084819
3160.633056,140.085163
3182.233056,140.085337
3203.833056,140.085369
3225.433056,140.08528
3232.716389,140.085226
3240.0,140.085161
3240.01,140.045882
3240.02,140.036999
3240.03,140.032398
3240.044167,140.028368
3240.064722,140.02455
3240.095,140.02082
3240.139167,140.016994
3240.204444,140.012795
3240.3,140.007976
3240.440278,140.002391
3240.646389,139.995946
3240.948611,139.988549
3241.3925,139.980118
3242.043889,139.970426
3243.0,139.959322
3244.403333,139.946529
3246.463333,139.93178
3249.486944,139.914888
3253.924722,139.895823
3260.438889,139.874727
3270.0,139.851861
3284.033889,139.827523
3304.633056,139.801968
3326.233056,139.782067
3347.833056,139.766238
3369.433056,139.753039
3391.033056,139.741677
3412.633056,139.731669
3434.233056,139.722699
3455.833056,139.71455
3477.433056,139.707067
3478.716389,139.706641
3480.0,139.706216
3480.01,139.758585
3480.02,139.770424
3480.03,139.776556
3480.044167,139.781924
3480.064722,139.787009
3480.095,139.791971
3480.139167,139.797057
3480.204444,139.802634
3480.3,139.809026
3480.440278,139.816425
3480.646389,139.824948
3480.948611,139.834706
3481.3925,139.845796
3482.043889,139.858498
3483.0,139.872976
3484.403333,139.889557
3486.463333,139.908526
3489.486944,139.930033
3493.924722,139.953975
3500.438889,139.979961
3510.0,140.007362
3524.033889,140.035396
3544.633056,140.063206
3566.233056,140.083418
3587.833056,140.09842
3593.916389,140.101991
3600.0,140.105332
3600.01,140.085697
3600.02,140.081262
3600.03,140.078967
3600.044167,140.076959
3600.064722,140.075061
3600.095,140.073212
3600.139167,140.071323
3600.204444,140.069258
3600.3,140.0669
3600.440278,140.064182
3600.646389,140.06107
3600.948611,140.057532
3601.3925,140.053552
3602.043889,140.049049
3603.0,140.043997
3604.403333,140.038325
3606.463333,140.031996
3609.486944,140.025047
3613.924722,140.017634
3620.438889,140.010043
3630.0,140.002646
3644.033889,139.995837
3664.633056,139.989924
3686.233056,139.98615
3707.833056,139.983586
3729.433056,139.981672
3751.033056,139.980134
3772.633056,139.97882
3794.233056,139.977645
3815.833056,139.976556
3837.433056,139.975522
3838.716389,139.975462
3840.0,139.975402
3840.01,139.955762
3840.02,139.95132
3840.03,139.949019
3840.044167,139.947004
3840.064722,139.945093
3840.095,139.943227
3840.139167,139.941313
3840.204444,139.93921
3840.3,139.936797
3840.440278,139.933998
3840.646389,139.930767
3840.948611,139.927056
3841.3925,139.922822
3842.043889,139.917949
3843.0,139.912357
3844.403333,139.905903
3846.463333,139.898443
3849.486944,139.889874
3853.924722,139.880164
3860.438889,139.869359
3870.0,139.857559
3884.033889,139.844869
3904.633056,139.831361
3926.233056,139.820679
3947.833056,139.812061
3953.916389,139.809897
3960.0,139.807826
3960.01,139.834009
3960.02,139.839927
3960.03,139.842991
3960.044167,139.845673
3960.064722,139.848212
3960.095,139.850688
3960.139167,139.853223
3960.204444,139.856001
3960.3,139.859181
3960.440278,139.862856
3960.646389,139.867084
3960.948611,139.871912
3961.3925,139.877384
3962.043889,139.883627
3963.0,139.890709
3964.403333,139.898772
3966.463333,139.907929
3969.486944,139.918212
3973.924722,139.929517
3980.438889,139.94158
3990.0,139.954006
4004.033889,139.96632
4024.633056,139.978018
4046.233056,139.9861
4067.833056,139.991805
4089.433056,139.996032
4111.033056,139.999263
4132.633056,140.001783
4154.233056,140.003775
4175.833056,140.005362
4197.433056,140.006628
4219.033056,140.007637
4240.633056,140.008436
4262.233056,140.009058
4283.833056,140.009533
4305.433056,140.009882
4320.0,140.010056
