time,pressure
0.0,115.809333
0.000278,115.809333
0.000556,115.809333
0.000833,115.809333
0.001111,115.809333
0.001389,115.809333
0.001667,115.809333
0.001944,115.809333
0.002222,115.809333
0.0025,115.809333
0.002778,115.809333
0.003056,115.809333
0.003333,115.809333
0.003611,115.809333
0.003889,115.809333
0.004167,115.809333
0.004444,115.809333
0.004722,115.809333
0.005,115.809333
0.005278,115.809333
0.005556,115.809333
0.055556,111.637948
0.105556,109.711949
0.155556,107.979518
0.205556,106.450333
0.255556,105.124394
0.305556,103.933952
0.355556,102.888686
0.405556,101.882134
0.455556,100.933652
0.505556,100.110989
0.555556,99.530286
0.605556,98.794728
0.655556,98.155955
0.705556,97.604287
0.755556,97.091332
0.805556,96.617091
0.855556,96.191242
0.905556,95.794428
0.955556,95.42665
1.005278,95.078228
1.023056,94.962087
2.023056,90.887486
3.022778,88.700171
4.0225,87.132272
5.0225,85.786976
6.022222,84.606213
7.021944,83.580304
8.021944,82.593108
9.021667,81.615591
10.021389,80.78325
11.021389,80.028336
12.021111,79.273422
13.020833,78.566899
14.020833,77.899091
15.020556,77.269995
16.020278,76.689292
17.020278,76.118267
17.375833,75.905343
19.857222,101.165933
19.8575,101.165933
19.857778,101.165933
19.858056,101.165933
19.858333,101.165933
19.858611,101.165933
19.858889,101.165933
19.859167,101.165933
19.859444,101.165933
19.859722,101.165933
19.86,101.165933
19.860278,101.165933
19.860556,101.165933
19.860833,101.165933
19.861111,101.165933
19.861389,101.165933
19.861667,101.165933
19.861944,101.165933
19.862222,101.165933
19.8625,101.165933
19.862778,101.165933
20.8625,80.260617
21.8625,77.221603
22.862222,76.079554
23.861944,75.334318
24.861944,74.656831
25.861667,74.589082
26.861389,74.298731
27.000556,74.250339
31.999722,72.566299
36.998889,71.143576
41.997778,70.059597
46.996944,69.101437
51.996111,68.230382
56.995,67.514181
61.994167,66.817337
66.993333,66.333418
71.992222,65.665609
76.991389,65.162333
81.990556,64.707449
86.989444,64.262243
91.988611,63.884786
96.987778,63.49765
101.986667,63.178264
106.985833,62.936304
111.985,62.704023
116.984167,62.452385
121.983056,62.258817
126.982222,62.055571
131.981389,61.813611
136.980278,61.687792
141.979444,61.465189
146.978611,61.242586
151.9775,61.116767
156.976667,60.932878
161.975833,60.79738
166.975,60.768345
171.973889,60.79738
176.973056,60.690918
181.972222,60.642526
186.971111,60.642526
191.970278,60.565099
196.969444,60.594134
201.968611,60.410245
206.9675,60.245712
211.966667,60.187642
216.965833,60.052145
221.964722,59.965039
226.963889,59.868255
231.963056,59.810185
236.961944,59.742436
241.961111,59.626296
246.960278,59.606939
251.959167,59.510155
256.958333,59.452085
261.9575,59.335944
266.956667,59.248838
271.955556,59.210125
276.954722,59.306909
281.953889,59.152055
286.952778,59.113341
291.951944,58.987522
296.951111,58.958487
301.95,58.987522
306.949167,58.948808
311.948333,58.861703
316.947222,58.813311
321.946389,58.793954
326.945556,58.784276
331.944444,58.726206
336.943611,58.658457
341.942778,58.590708
346.941667,58.619743
351.940833,58.571351
356.94,58.590708
361.938889,58.571351
366.938056,58.561673
371.936944,58.532638
376.936111,59.006879
378.221111,58.600386
383.4775,58.464889
388.476667,58.193894
393.475556,58.126146
398.474722,58.048718
403.473611,57.971291
408.472778,57.855151
413.471667,57.787402
418.470833,57.709975
423.47,57.671261
428.469167,57.642226
433.468056,57.555121
438.467222,57.584156
443.466389,57.516407
448.465278,57.487372
453.464444,57.516407
458.463611,57.429302
463.4625,57.390588
468.461667,57.342196
473.460833,57.303483
478.46,57.255091
483.458889,57.206699
488.458056,57.235734
493.457222,57.13895
498.456111,57.090558
503.455278,57.08088
508.454444,57.003453
513.453333,56.993774
518.4525,57.003453
523.451667,56.984096
528.450556,56.887312
533.449722,56.89699
538.448889,56.858277
543.447778,56.955061
548.446944,56.89699
553.446111,56.858277
558.445278,56.819563
563.444167,56.761493
568.443333,56.809885
573.4425,56.703423
578.441389,56.761493
583.440556,56.906669
588.439722,56.916347
593.438611,57.022809
598.437778,57.119593
603.436944,57.187342
608.435833,57.284126
613.435,57.390588
618.434167,56.393714
623.433056,56.374357
628.432222,56.384036
633.431389,56.345322
638.430278,56.374357
643.429444,56.432428
648.428611,56.442106
653.427778,56.442106
658.426667,56.490498
663.425833,56.587282
668.424722,56.519533
673.423889,56.490498
678.423056,56.442106
683.421944,56.403393
688.421111,56.29693
693.420278,56.287252
698.419167,56.258217
703.418333,56.093684
708.4175,55.9969
713.416389,57.08088
718.415556,56.074327
723.414722,56.084006
728.413889,56.025935
733.412778,55.929152
738.411944,55.861403
743.410833,55.754941
748.41,55.658157
753.409167,55.609765
758.408056,55.503303
763.407222,55.532338
768.406389,55.474267
773.405278,55.445232
778.404444,55.425875
783.403611,55.271021
788.402778,55.300056
793.401667,55.309735
798.400833,55.183916
803.4,55.193594
808.398889,55.164559
813.398056,55.106489
818.397222,55.03874
823.396111,55.019383
828.395278,55.019383
833.394444,54.970991
838.393333,54.932278
843.3925,54.893564
848.391667,54.854851
853.390556,54.777424
858.389722,54.816137
863.388889,54.758067
868.387778,54.777424
873.386944,54.719353
878.385833,54.661283
883.385,54.690318
888.384167,54.670961
893.383056,54.651604
898.382222,54.670961
903.381111,54.632248
908.380278,54.699996
913.379444,54.593534
918.378333,54.593534
923.3775,54.622569
928.376667,54.525785
933.375556,54.525785
938.374722,54.516107
943.373889,54.458037
948.372778,54.390288
953.371944,54.43868
958.371111,54.43868
963.37,54.516107
968.369167,54.477394
973.368333,54.525785
978.3675,54.593534
983.366389,54.690318
988.365556,54.68064
993.364444,54.79678
998.363611,54.825815
1003.362778,55.000026
1008.361667,55.029062
1013.360833,55.135524
1018.359722,55.212951
1023.358889,55.271021
1028.358056,55.377484
1033.356944,55.503303
1038.356111,55.445232
1043.355,55.522659
1048.354167,55.58073
1053.353056,55.69687
1058.352222,55.793654
1063.351389,55.822689
1068.350278,55.890438
1073.349444,55.900116
1078.348611,55.977544
1083.3475,56.084006
1088.346667,56.084006
1093.345833,56.122719
1098.344722,56.161433
1103.343889,56.200146
1108.343056,56.258217
1113.341944,56.267895
1118.341111,56.325965
1123.340278,56.355001
1128.339444,56.316287
1133.338333,56.325965
1138.3375,56.393714
1143.336389,56.355001
1148.335556,56.403393
1153.334722,56.451785
1158.333611,56.422749
1163.332778,56.471141
1168.331667,56.558247
1173.330833,56.567925
1178.33,56.529212
1183.328889,56.606639
1188.328056,56.577604
1193.327222,56.59696
1198.326111,56.616317
1203.325278,56.59696
1208.324444,56.635674
1213.323333,56.742136
1218.3225,56.722779
1223.321667,56.790528
1228.320556,56.751815
1233.319722,56.790528
1238.318611,56.732458
1243.317778,56.809885
1248.316944,56.867955
1253.315833,56.858277
1258.315,56.887312
1263.314167,56.83892
1268.313056,56.790528
1273.312222,56.664709
1278.311389,56.53889
1283.310278,56.442106
1288.309444,56.316287
1293.308611,56.209825
1298.3075,56.045292
1303.306667,55.919473
1308.305556,55.822689
1313.304722,55.706549
1318.303889,55.609765
1323.302778,55.474267
1328.301944,55.416197
1333.301111,55.309735
1338.3,55.290378
1343.299167,55.174237
1348.298333,55.03874
1353.297222,54.990348
1358.296389,54.825815
1363.295556,54.883886
1368.294444,54.816137
1373.293611,54.719353
1378.292778,54.68064
1383.291667,54.603213
1388.290833,54.612891
1393.29,54.477394
1398.288889,54.516107
1403.288056,54.516107
1408.287222,54.458037
1413.286111,54.429002
1418.285278,54.293504
1423.284444,54.409645
1428.283333,54.254791
1433.2825,54.293504
1438.281667,54.283826
1443.280833,54.274147
1448.279722,54.216077
1453.278889,54.177364
1458.277778,54.225755
1463.276944,54.13865
1468.276111,54.109615
1473.275,54.099936
1478.274167,54.119293
1483.273333,54.158007
1488.272222,54.167685
1493.271389,54.19672
1498.270556,54.090258
1503.269444,54.08058
1508.268611,54.128972
1513.267778,54.090258
1518.266667,54.051544
1523.265833,54.041866
1528.265,54.051544
1533.264167,54.032188
1538.263056,54.08058
1543.262222,54.032188
1548.261389,53.983796
1553.260278,54.13865
1558.259444,53.974117
1563.258611,53.906369
1568.2575,53.857977
1573.256667,53.877334
1578.255833,53.89669
1583.254722,53.89669
1588.253889,53.819263
1593.253056,53.809585
1598.251944,53.790228
1603.251111,53.828942
1608.250278,53.906369
1613.249167,53.790228
1618.248333,53.751514
1623.2475,53.751514
1628.246389,53.751514
1633.245556,53.703123
1638.244722,53.654731
1643.243611,53.654731
1648.242778,53.645052
1653.241944,53.674087
1658.240833,53.635374
1663.24,53.606339
1668.239167,53.645052
1673.238056,53.635374
1678.237222,53.635374
1683.236389,53.732158
1688.235556,53.770871
1693.234444,53.586982
1698.233611,53.567625
1703.232778,53.577304
1708.231667,53.567625
1713.230833,53.664409
1718.23,53.557947
1723.228889,53.577304
1728.228056,53.586982
1733.227222,53.577304
1738.226111,53.528912
1743.225278,53.519233
1748.224444,53.528912
1753.223333,53.451484
1758.2225,53.451484
1763.221667,53.412771
1768.220556,53.441806
1773.219722,53.432128
1778.218889,53.519233
1783.217778,53.432128
1788.216944,53.422449
1793.216111,53.422449
1798.215,53.432128
1803.214167,53.432128
1808.213333,53.422449
1813.212222,53.461163
1818.211389,53.393414
1823.210556,53.441806
1828.209444,53.286952
1833.208611,53.209525
1838.207778,53.132098
1843.206667,53.170811
1848.205833,53.122419
1853.205,53.141776
1858.203889,52.957887
1863.203056,53.035314
1868.202222,53.074027
1873.201111,52.870781
1878.200278,52.744962
1883.199444,52.6385
1888.198333,52.493324
1893.1975,52.503003
1898.196389,52.270721
1903.195556,52.106189
1908.194722,51.970691
1913.193611,51.835194
1918.192778,51.690018
1923.191944,51.467415
1928.190833,51.360953
1933.19,51.167385
1938.189167,51.13835
1943.188056,51.060923
1948.187222,51.022209
1953.186389,51.051244
1958.185556,51.070601
1963.184444,51.235134
1968.183611,51.244812
1973.1825,51.206099
1978.181667,51.235134
1983.180833,51.235134
1988.179722,51.43838
1993.178889,51.389988
1998.178056,51.360953
2003.176944,51.389988
2008.176111,51.457737
2013.175278,51.583556
2018.174167,51.583556
2023.173333,51.573877
2028.1725,51.573877
2033.171389,51.564199
2038.170556,51.748088
2043.169722,51.583556
2048.168611,51.641626
2053.167778,51.612591
2058.166944,51.699696
2063.165833,51.690018
2068.165,51.651304
2073.164167,51.767445
2078.163056,51.728732
2083.162222,51.806159
2088.161111,51.79648
2093.160278,51.79648
2098.159444,51.806159
2103.158333,51.825515
2108.1575,51.893264
2113.156667,51.893264
2118.155556,51.970691
2123.154722,51.854551
2128.153889,51.951334
2133.152778,51.970691
2138.151944,51.893264
2143.150833,51.902943
2148.15,51.854551
2153.149167,51.951334
2158.148056,51.961013
2163.147222,51.912621
2168.146389,51.825515
2173.145278,51.873907
2178.144444,51.873907
2183.143333,52.009405
2188.1425,51.883586
2193.141389,51.883586
2198.140556,51.864229
2203.139722,51.922299
2208.138889,51.79648
2213.137778,51.767445
2218.136944,51.777124
2223.136111,51.719053
2228.135,51.806159
2233.134167,51.73841
2238.133333,51.912621
2243.132222,51.709375
2248.131389,51.699696
2253.130556,51.728732
2258.129444,51.660983
2263.128611,51.68034
2268.127778,51.554521
2273.126667,51.467415
2278.125833,51.515807
2283.125,51.467415
2288.123889,51.486772
2293.123056,51.467415
2298.122222,51.43838
2303.121389,51.467415
2308.120278,51.467415
2313.119444,51.43838
2318.118611,51.370631
2323.1175,51.322239
2328.116667,51.38031
2333.115833,51.360953
2338.114722,51.254491
2343.113889,51.283526
2348.113056,51.225455
2353.111944,51.215777
2358.111111,51.244812
2363.110278,51.235134
2368.109444,51.235134
2373.108333,51.254491
2378.1075,51.264169
2383.106667,51.283526
2388.105556,51.302883
2393.104722,51.302883
2396.219444,80.444506
2396.219722,80.444506
2396.22,80.444506
2396.220278,80.444506
2396.220556,80.444506
2396.220833,80.444506
2396.221111,80.444506
2396.221389,80.444506
2396.221667,80.444506
2396.221944,80.444506
2396.222222,80.444506
2396.2225,80.444506
2396.222778,80.444506
2396.223056,80.444506
2396.223333,80.444506
2396.223611,80.444506
2396.223889,80.444506
2396.224167,80.444506
2396.224444,80.444506
2396.224722,80.444506
2396.225,80.444506
2401.224167,53.354701
2406.223056,52.599786
2411.222222,52.135224
2416.221389,51.902943
2421.220278,51.719053
2423.221944,51.622269
2428.302778,51.360953
2433.301944,51.215777
2438.301111,51.157707
2443.3,51.041566
2448.299167,50.983496
2453.298333,50.877033
2458.297222,50.760893
2463.296389,50.702823
2468.295556,50.635074
2473.294444,50.59636
2478.293611,50.509255
2483.292778,50.48022
2488.291667,50.441506
2493.290833,50.431828
2498.289722,50.325365
2503.288889,50.325365
2508.288056,50.247938
2513.286944,50.247938
2518.286111,50.383436
2523.285,50.218903
2528.284167,50.18019
2533.283333,50.151154
2538.282222,50.112441
2543.281111,50.170511
2548.280278,50.073727
2553.279444,50.035014
2558.278333,50.005979
2563.2775,50.189868
2568.276389,50.093084
2573.275556,49.976943
2578.274444,49.870481
2583.273611,49.976943
2588.272778,49.860803
2593.271667,49.860803
2598.270833,49.793054
2603.27,49.705949
2608.268889,49.715627
2613.268056,49.686592
2618.266944,49.69627
2623.266111,49.657557
2628.265278,49.6382
2633.264167,49.599486
2638.263333,49.618843
2643.2625,49.541416
2648.261389,49.502703
2653.260556,49.434954
2658.259444,106.537438
2663.258611,57.08088
2666.636944,56.025935
2666.713611,58.958487
2666.713889,58.958487
2666.714167,58.958487
2666.714444,58.958487
2666.714722,58.958487
2666.715,58.958487
2666.715278,58.958487
2666.715556,58.958487
2666.715833,58.958487
2666.716111,58.958487
2666.716389,58.958487
2666.716667,58.958487
2666.716944,58.958487
2666.717222,58.958487
2666.7175,58.958487
2666.717778,58.958487
2666.718056,58.958487
2666.718333,58.958487
2666.718611,58.958487
2666.718889,58.958487
2666.719167,58.958487
2671.718056,54.167685
2676.717222,53.209525
2681.716111,52.483646
2686.715278,51.941656
2691.714167,51.419023
2696.713333,50.973817
2701.7125,50.828642
2706.711389,50.557647
2711.710556,50.412471
2716.709722,50.189868
2721.708611,50.112441
2726.707778,50.005979
2731.706944,49.967265
2736.705833,49.947908
2738.866389,49.88016
2738.943056,52.183616
2738.943333,52.183616
2738.943611,52.183616
2738.943889,52.183616
2738.944167,52.183616
2738.944444,52.183616
2738.944722,52.183616
2738.945,52.183616
2738.945278,52.183616
2738.945556,52.183616
2738.945833,52.183616
2738.946111,52.183616
2738.946389,52.183616
2738.946667,52.183616
2738.946944,52.183616
2738.947222,52.183616
2738.9475,52.183616
2738.947778,52.183616
2738.948056,52.183616
2738.948333,52.183616
2738.948611,52.183616
2743.947778,49.2801
2748.946944,49.2801
2750.056389,49.2801
2750.059167,49.2801
2755.058056,49.2801
2760.057222,48.312261
2765.056111,48.312261
2770.055278,48.312261
2775.054167,48.312261
2780.053333,48.312261
2785.052222,48.312261
2790.051389,48.312261
2795.050278,48.312261
2800.049444,48.312261
2805.048333,48.312261
2810.047222,48.312261
2815.046389,48.312261
2820.045556,48.312261
2825.044444,48.312261
2830.043333,48.312261
2835.0425,48.312261
2840.041389,48.312261
2841.980278,48.312261
2841.983056,48.312261
2846.982222,48.312261
2851.981111,48.312261
2856.98,47.344422
2861.979167,47.344422
2866.978056,47.344422
2871.977222,47.344422
2876.976389,47.344422
2881.975278,47.344422
2886.974167,47.344422
2891.973333,47.344422
2896.9725,47.344422
2901.971389,47.344422
2906.970556,47.344422
2911.969444,47.344422
2916.968611,47.344422
2921.9675,47.344422
2926.966667,47.344422
2931.965556,47.344422
2936.964722,47.344422
2940.041667,47.344422
2940.118333,50.867355
2940.118611,50.867355
2940.118889,50.867355
2940.119167,50.867355
2940.119444,50.867355
2940.119722,50.867355
2940.12,50.867355
2940.120278,50.867355
2940.120556,50.867355
2940.120833,50.867355
2940.121111,50.867355
2940.121389,50.867355
2940.121667,50.867355
2940.121944,50.867355
2940.122222,50.867355
2940.1225,50.867355
2940.122778,50.867355
2940.123056,50.867355
2940.123333,50.867355
2940.123611,50.867355
2940.123889,50.867355
2945.123056,47.615417
2950.121944,47.750914
2955.120833,47.59606
2960.12,47.528312
2965.119167,47.518633
2970.118056,47.489598
2975.117222,47.450884
2980.116111,47.373457
2985.115278,47.325065
2990.114444,47.266995
2995.113333,47.421849
3000.112222,47.305709
3005.111389,47.218603
3010.110278,47.208925
3015.109444,47.228282
3020.108333,47.286352
3025.107222,47.199246
3030.106389,47.170211
3035.105278,47.131498
3040.104444,47.141176
3045.103333,47.199246
3050.102222,47.121819
3055.101389,47.044392
3060.100556,47.112141
3065.099444,47.063749
3070.098611,47.054071
3075.0975,47.044392
3080.096667,47.073427
3085.095833,47.044392
3095.093889,50.751214
3100.093056,50.625395
3105.091944,50.257617
3110.091111,49.986622
3115.090278,49.725305
3120.089167,49.58013
3125.088333,49.405919
3130.087222,49.299456
3135.086389,49.212351
3141.715,54.167685
3146.714167,55.890438
3151.713333,58.735884
3156.712222,62.152355
3166.710556,58.251965
3171.709444,59.684366
3176.708611,62.549168
3181.707778,64.146102
3184.043056,64.600987
3184.699722,77.976518
3184.7,77.976518
3184.700278,77.976518
3184.700556,77.976518
3184.700833,77.976518
3184.701111,77.976518
3184.701389,77.976518
3184.701667,77.976518
3184.701944,77.976518
3184.702222,77.976518
3184.7025,77.976518
3184.702778,77.976518
3184.703056,77.976518
3184.703333,77.976518
3184.703611,77.976518
3184.703889,77.976518
3184.704167,77.976518
3184.704444,78.063623
3184.704722,78.063623
3184.705,78.063623
3184.705278,78.063623
3184.713333,77.753915
3184.888056,79.747662
3184.888333,79.747662
3184.888611,79.747662
3184.888889,79.747662
3184.889167,79.747662
3184.889444,79.747662
3184.889722,79.747662
3184.89,79.747662
3184.890278,79.747662
3184.890556,79.747662
3184.890833,79.747662
3184.891111,79.747662
3184.891389,79.747662
3184.891667,79.747662
3184.891944,79.747662
3184.892222,79.747662
3184.8925,79.747662
3184.892778,79.747662
3184.893056,79.747662
3184.893333,79.747662
3184.893611,79.747662
3189.573889,61.736184
3194.572778,58.687492
3199.571944,56.935704
3204.570833,55.619443
3209.57,54.690318
3214.569167,53.848298
3219.568056,53.093384
3224.567222,53.190168
3229.566389,52.706249
3234.565278,52.367505
3239.564444,52.028762
3244.563611,51.728732
3249.5625,51.49645
3254.561667,51.351274
3259.560833,51.13835
3264.56,50.906069
3269.558889,50.693144
3274.558056,50.547968
3279.557222,50.393114
3284.556111,50.29633
3289.555278,50.131798
3294.554167,50.064049
3299.553333,49.957587
3304.5525,49.870481
3309.551389,49.744662
3314.550556,49.657557
3319.549444,49.541416
3324.548611,49.463989
3329.5475,49.347848
3334.546667,49.309135
3339.545556,49.241386
3344.544722,49.241386
3349.543889,49.212351
3354.542778,49.067175
3354.976944,49.067175
3354.979722,49.057497
3359.978611,48.79618
3364.977778,48.68004
3369.976667,48.554221
3374.975833,48.612291
3379.975,48.602613
3384.973889,48.554221
3389.973056,48.428402
3394.971944,48.457437
3400.668611,76.602187
3400.668889,76.602187
3400.669167,76.602187
3400.669444,76.602187
3400.669722,76.602187
3400.67,76.602187
3400.670278,76.602187
3400.670556,76.602187
3400.670833,76.602187
3400.671111,76.602187
3400.671389,76.602187
3400.671667,76.602187
3400.671944,76.602187
3400.672222,76.602187
3400.6725,76.602187
3400.672778,76.602187
3400.673056,76.602187
3400.673333,76.602187
3400.673611,76.602187
3400.673889,76.602187
3400.674167,76.602187
3405.673333,50.257617
3410.672222,49.831768
3415.671389,49.570451
3420.670556,49.58013
3430.008333,84.199721
3430.008611,84.199721
3430.008889,84.199721
3430.009167,84.199721
3430.009444,84.199721
3430.009722,84.199721
3430.01,84.199721
3430.010278,84.199721
3430.010556,84.199721
3430.010833,84.199721
3430.011111,84.199721
3430.011389,84.199721
3430.011667,84.199721
3430.011944,84.209399
3430.012222,84.209399
3430.0125,84.209399
3430.012778,84.209399
3430.013056,84.209399
3430.013333,84.209399
3430.013611,84.209399
3430.013889,84.209399
3435.013056,54.13865
3440.012222,52.570751
