time,pressure
0.0,68.29498
0.141944,68.334661
0.351111,68.384989
0.6625,68.505001
0.799722,68.535004
0.934167,68.59501
1.075833,68.655016
1.273056,68.645337
1.458611,68.754703
1.595,68.89504
1.728056,68.865037
1.8525,68.915364
1.9925,68.944399
2.124444,69.075058
2.258056,69.084736
2.395833,69.084736
2.519722,69.054733
2.644722,69.045055
2.801389,69.165067
2.926111,69.255076
3.061667,69.424447
3.197778,69.465097
3.326389,69.474775
3.461389,69.555106
3.594167,69.825133
3.726389,74.594642
3.858611,81.884403
3.991389,87.515289
4.128611,92.554825
4.263056,96.365206
4.399722,99.244526
4.533056,101.314733
5.456389,74.734978
5.590556,71.655316
5.721667,69.534781
5.854444,67.805253
5.983056,66.485121
6.116667,65.654715
6.249722,64.64526
6.384444,63.674517
6.5175,62.924442
6.653889,62.085326
6.779444,61.104906
6.913889,60.2745
7.045556,59.67444
7.178056,59.045345
7.314722,58.415282
7.4475,57.914909
7.587222,57.474543
7.725556,57.084504
7.8575,56.724468
7.981944,56.394435
8.121111,56.045045
8.253889,55.745015
8.387778,55.42466
8.515556,55.144955
8.6475,54.874928
8.780833,54.604901
8.913611,54.364877
9.052778,54.134531
9.190833,53.935156
9.326389,53.744492
9.451944,53.594477
9.585,53.425105
9.717778,53.254766
9.867222,53.085394
10.002222,52.935379
10.135556,52.795042
10.260556,52.635349
10.392778,52.534694
10.524167,52.735036
10.658889,52.825045
10.793611,52.875373
10.927778,52.905376
11.061111,52.924733
11.193889,52.924733
11.325556,52.89473
11.458889,52.875373
11.593889,52.825045
11.727778,52.765039
11.864722,52.665352
12.003611,52.585021
12.126944,52.504691
12.263611,52.414682
12.395556,52.335319
12.529444,52.284991
12.664444,52.215307
12.798056,52.125298
12.922778,52.044967
13.055,51.975283
13.187222,51.915277
13.311389,51.834946
13.653333,51.684931
13.718611,51.654928
13.855,51.585244
13.989444,51.534916
14.113056,51.495235
14.245278,51.444907
14.378611,51.405226
14.513889,51.34522
14.650556,51.315217
14.783056,51.274568
14.915833,51.244565
15.051667,51.225208
15.185278,51.225208
15.318333,51.195205
15.443056,51.165202
15.602778,51.144877
15.737778,51.114874
15.870278,51.09455
15.997222,51.084871
16.134444,51.054868
16.2675,51.04519
16.395,51.034544
16.531389,51.015187
16.6625,50.985184
16.795556,50.985184
16.929722,50.974538
17.063056,50.955181
17.195556,50.934856
17.327778,50.925178
17.460278,50.914532
17.594167,50.784841
17.728056,50.355121
17.864444,49.794742
18.002222,49.41535
18.126667,49.695055
18.259167,49.854748
18.390833,49.955404
18.525278,49.985407
18.659444,49.464709
18.793333,48.744637
18.926111,48.425251
19.057778,48.564619
19.191111,49.025311
19.326944,49.295338
19.465278,49.524715
19.601111,49.665052
19.724722,49.655374
19.856944,49.725058
19.989167,49.905076
20.120833,50.055091
20.25,50.064769
20.383611,49.764739
20.518889,49.124998
20.651944,48.464932
20.776389,48.234586
20.934444,48.564619
21.068056,48.94498
21.203889,49.175326
21.329722,48.845293
21.461944,48.314917
21.594444,48.054568
21.728611,48.395248
21.865278,48.824968
22.0075,49.104673
22.193889,49.235332
22.328889,48.965305
22.463889,49.034989
22.603056,49.344697
22.736667,49.505359
22.862222,49.404703
22.995278,48.884974
23.131111,48.354598
23.263611,47.975206
23.394722,48.084571
23.53,48.554941
23.663889,48.864649
23.800556,49.064992
23.932778,48.914977
24.065556,48.47461
24.197778,48.014887
24.334167,48.324595
24.467222,48.77464
24.606389,49.094995
24.8,49.475356
24.942778,49.745383
25.136944,49.755061
25.288611,49.625371
25.472222,49.655374
25.602222,49.305016
25.737222,48.965305
25.874444,48.704956
26.070556,48.974983
26.199722,49.275013
26.337778,49.475356
26.47,49.695055
26.597778,49.854748
26.731944,49.734736
26.865833,49.284691
27.0075,49.07467
27.193611,48.584944
27.325278,48.47461
27.457222,48.455254
27.590833,48.34492
27.725556,48.324595
27.859722,48.084571
27.993611,47.684854
28.129167,47.525161
28.262778,47.894875
28.399444,48.354598
28.5325,48.605269
28.658333,48.77464
28.798611,48.714634
28.930278,48.245233
29.061389,48.065215
29.193333,48.34492
29.326111,48.695278
29.460833,48.894652
29.600556,48.77464
29.736944,48.084571
29.86,47.474833
29.9975,47.045113
30.1375,47.304493
30.278611,47.825191
30.465,47.954881
30.603611,47.435152
30.74,47.124475
30.924722,47.465155
31.056944,47.814544
31.1925,47.924878
31.318889,47.834869
31.451111,47.705179
31.609444,47.334496
31.793611,47.405149
31.926389,47.514514
32.064444,47.664529
32.191389,47.795188
32.325556,47.864872
32.457222,47.654851
32.583333,47.394502
32.715556,47.285137
32.856667,47.424505
32.991111,47.825191
33.138056,48.284914
33.261944,48.365245
33.405,48.144577
33.544167,47.9152
33.729444,48.005209
33.867222,48.204583
33.991944,48.414604
34.124167,48.434929
34.259722,48.395248
34.393056,48.324595
34.528333,48.164902
34.675278,48.125221
34.8725,48.234586
35.0125,48.34492
35.205,48.605269
35.346944,48.734959
35.540556,48.755284
35.718889,49.044667
35.8775,49.404703
36.065556,49.745383
36.205278,49.805389
36.343333,49.3747
36.523056,49.235332
36.656667,49.644727
36.788611,49.914754
36.920556,50.115097
37.054167,50.265112
37.187222,50.424805
37.311389,50.385124
37.652222,48.924655
37.714167,48.794965
37.847222,48.834646
37.984167,49.155001
38.115278,49.445353
38.246667,49.635049
38.378056,49.665052
38.511111,49.265335
38.645,49.085317
38.779167,49.205329
38.910556,49.254688
39.050278,49.434706
39.181944,49.404703
39.315833,49.175326
39.448611,49.254688
39.5875,49.625371
39.719167,49.865395
39.851111,49.84507
40.008889,49.614724
40.1975,49.164679
40.330833,48.764962
40.465,48.584944
40.600556,48.64495
40.733889,48.914977
40.869444,49.124998
40.994167,48.935302
41.126667,48.434929
41.263056,47.975206
41.398611,47.904553
41.536389,48.395248
41.675,48.755284
41.801111,48.755284
41.934722,48.584944
42.073056,48.695278
42.196111,48.965305
42.3275,49.064992
42.460278,48.965305
42.594167,49.155001
42.726944,49.265335
42.861389,48.755284
42.993056,48.384601
43.124722,48.234586
43.248333,48.314917
43.379722,48.434929
43.513889,48.275236
43.6475,48.065215
43.7825,47.894875
43.913611,47.844547
44.048889,48.095218
44.180278,48.51526
44.315833,48.864649
44.448611,49.064992
44.584167,49.155001
44.716111,49.164679
44.850833,48.965305
44.986111,48.494935
45.12,48.164902
45.252778,48.384601
45.3775,48.674953
45.511111,48.894652
45.643333,49.275013
45.801389,49.54504
45.940278,49.475356
46.077222,49.104673
46.256389,48.425251
46.388056,48.065215
46.522222,47.645173
46.653611,47.405149
46.786111,47.454508
46.919167,47.654851
47.048056,47.825191
47.18,47.834869
47.313333,47.694532
47.445,47.525161
47.578333,47.384824
47.710556,47.354821
47.846944,47.375146
47.983056,47.465155
48.115556,47.564842
48.252222,47.844547
48.383889,48.234586
48.517778,48.464932
48.655556,48.34492
48.788333,47.87455
48.920833,47.634526
49.0475,47.424505
49.179444,47.27449
49.312222,47.424505
49.444722,47.514514
49.580278,47.454508
49.712222,47.484511
49.854167,47.44483
49.989167,47.27449
50.122222,47.255134
50.249167,47.27449
50.391111,47.414827
50.535278,47.624848
50.678889,47.684854
50.864722,47.345143
50.992778,47.364499
51.132778,47.585167
51.277778,47.87455
51.470278,48.164902
51.610833,48.51526
51.798611,47.774863
51.931111,47.1448
52.075,47.105119
52.273333,47.154478
52.460556,47.024788
52.598333,46.944457
52.734722,47.105119
52.882778,47.555164
53.0825,47.555164
53.2725,47.354821
53.415278,47.334496
53.614167,47.124475
53.806111,47.01511
54.0075,47.375146
54.195278,47.604523
54.339444,47.954881
54.470278,48.185227
54.619167,48.21523
54.797778,47.9152
54.94,47.514514
55.136389,47.054791
55.266389,47.094472
55.407222,47.31514
55.6075,47.484511
55.799444,47.525161
55.947778,47.454508
56.145,47.094472
56.341944,47.255134
56.538611,47.384824
56.677222,47.484511
56.863611,47.735182
56.994722,47.894875
57.149167,47.975206
57.3575,47.964559
57.5225,47.844547
57.662778,47.634526
57.800278,47.61517
57.934444,47.714857
58.079444,47.814544
58.263333,47.784541
58.408056,47.544517
58.607778,47.304493
58.804444,47.645173
58.943611,48.155224
59.132778,48.485257
59.270556,48.354598
59.403611,48.384601
59.543056,48.464932
59.7375,48.374923
59.875,48.324595
60.064167,47.934556
60.201111,47.954881
60.331389,47.984884
60.470556,48.04489
60.61,48.234586
60.806111,48.164902
60.934167,48.035212
61.071944,47.894875
61.211111,48.074893
61.645833,48.17458
61.685833,48.204583
61.8825,48.185227
62.078611,47.9152
62.279167,47.74486
62.468611,47.834869
62.600556,47.855194
62.737778,47.74486
62.874444,47.654851
63.071944,47.675176
63.203611,47.795188
63.345,47.705179
63.540556,47.754538
63.733889,48.065215
63.873333,48.185227
64.065556,48.224908
64.2025,48.104896
64.334722,47.894875
64.476111,47.645173
64.670833,47.765185
64.81,47.834869
64.999722,47.795188
65.128333,47.654851
65.266111,47.384824
65.403889,47.285137
65.536944,47.364499
65.676111,47.645173
65.872222,47.544517
66.010278,47.31514
66.199167,47.165125
66.3375,47.214484
66.468333,47.564842
66.608611,47.844547
66.800556,47.87455
66.938056,47.975206
67.066667,48.21523
67.206111,48.414604
67.345833,48.494935
67.541111,48.284914
67.733333,47.825191
67.875833,47.465155
68.070833,47.594845
68.210556,47.804866
68.402778,47.9152
68.540833,47.765185
68.735556,47.364499
68.874444,47.174803
69.073056,47.324818
69.261944,47.594845
69.398333,47.634526
69.536389,47.664529
69.669722,47.784541
69.812222,47.885197
70.011667,48.224908
70.206944,48.725281
70.398056,49.034989
70.5375,48.954658
70.676111,48.704956
70.865556,48.224908
71.002222,47.844547
71.130833,47.664529
71.269722,47.714857
71.411389,47.804866
71.612778,47.9152
71.811389,47.735182
72.006667,47.514514
72.206389,47.304493
72.348333,47.345143
72.543611,47.555164
72.736944,47.724535
72.864722,47.825191
73.007222,47.954881
73.200556,48.074893
73.338889,48.185227
73.4675,48.34492
73.605556,48.34492
73.743611,48.264589
73.934722,48.065215
74.069722,47.994562
74.2125,48.104896
74.406389,48.314917
74.547222,48.294592
74.737778,47.924878
74.870556,47.774863
75.010556,47.795188
75.209722,48.444607
75.403889,48.254911
75.5475,47.894875
75.744444,47.975206
75.941389,48.035212
76.138889,47.885197
76.278611,47.74486
76.468889,47.784541
76.603611,47.994562
76.744444,48.264589
76.945278,48.254911
77.140278,48.095218
77.340556,47.705179
77.481389,47.705179
77.680833,48.065215
77.874722,47.975206
78.0775,47.645173
78.271667,47.375146
78.407778,47.585167
78.601667,48.194905
78.740278,48.164902
78.935278,47.945203
79.079444,48.005209
79.271667,48.34492
79.4075,48.635272
79.546944,48.64495
79.740833,48.065215
79.9325,47.544517
80.071667,47.375146
80.203611,47.594845
80.345833,47.804866
80.540833,47.684854
80.731667,47.424505
80.868333,47.354821
81.002222,47.375146
81.145556,47.654851
81.339444,47.844547
81.478056,47.954881
81.6775,48.054568
81.88,48.224908
82.075556,48.194905
82.266944,47.994562
82.404444,47.784541
82.534722,47.675176
82.681389,47.814544
82.875833,47.885197
83.067778,47.784541
83.205,47.645173
83.333056,47.594845
83.471389,47.964559
83.611944,48.504613
83.801667,49.11532
83.9375,48.935302
84.066667,48.77464
84.203889,48.725281
84.341944,48.455254
84.539444,48.494935
84.667778,48.444607
84.805278,48.21523
84.945833,48.054568
85.136111,47.834869
85.27,47.945203
85.650278,47.765185
85.689444,47.74486
85.880556,47.484511
86.075278,47.334496
86.267778,47.484511
86.405,47.634526
86.535833,47.624848
86.680833,47.675176
86.874444,47.924878
87.069722,48.17458
87.207778,48.384601
87.405,48.524938
87.535556,48.254911
87.673333,47.9152
87.811944,47.654851
88.015556,47.465155
88.211111,47.735182
88.410556,47.634526
88.611111,47.514514
88.81,47.184481
88.999722,47.094472
89.136944,47.294815
89.265556,47.44483
89.410833,47.484511
89.605833,47.495158
89.7475,47.604523
89.939167,47.664529
90.07,47.834869
90.206944,48.065215
90.402222,48.294592
90.547222,48.224908
90.735833,47.814544
90.868056,47.495158
91.005833,47.294815
91.143611,47.345143
91.339167,47.454508
91.4675,47.474833
91.605,47.414827
91.745278,47.354821
91.934444,47.285137
92.078611,47.304493
92.273333,47.44483
92.401667,47.525161
92.545278,47.624848
92.735278,47.585167
92.883889,47.414827
93.078611,47.474833
93.268333,47.714857
93.396667,47.984884
93.535,48.014887
93.6725,47.9152
93.805556,47.714857
93.945278,47.44483
94.138611,47.394502
94.275833,47.495158
94.467222,47.604523
94.612778,47.604523
94.809444,47.714857
94.998611,47.714857
95.135278,47.765185
95.261667,47.864872
109.481944,55.084949
133.481944,55.084949
157.481944,48.884974
205.481944,48.084571
253.481944,51.084871
277.481944,51.084871
301.481944,51.084871
325.481944,51.084871
349.481944,51.084871
373.481944,48.084571
397.481944,48.084571
421.481944,47.084794
469.481944,48.084571
517.481944,48.084571
565.481944,48.384601
589.481944,48.284914
613.481944,48.185227
637.481944,48.384601
661.481944,48.284914
685.481944,48.485257
709.481944,49.284691
733.481944,49.485034
757.481944,48.884974
781.481944,49.085317
805.481944,48.884974
829.481944,48.684631
853.481944,48.485257
877.481944,48.584944
901.481944,48.584944
925.481944,48.485257
949.481944,48.384601
973.481944,48.584944
997.481944,48.284914
1021.481944,48.284914
1045.481944,48.185227
1069.481944,48.185227
1093.481944,48.084571
1117.481944,47.684854
1141.481944,47.484511
1165.481944,47.184481
1189.481944,47.285137
1213.481944,47.285137
1237.481944,47.684854
1261.481944,47.984884
1285.481944,47.984884
1309.481944,48.185227
1333.481944,48.384601
1357.481944,48.284914
1381.481944,48.185227
1405.481944,47.885197
1429.481944,43.684777
1453.481944,47.885197
1477.481944,48.185227
1501.481944,48.284914
1525.481944,47.984884
1549.481944,47.984884
1573.481944,48.084571
1597.481944,47.984884
1621.481944,48.284914
1645.481944,48.284914
1669.481944,48.084571
1693.481944,47.984884
1717.481944,47.784541
1741.481944,47.784541
1765.481944,47.484511
1789.481944,47.784541
1813.481944,47.684854
1837.481944,47.684854
1861.481944,47.784541
1885.481944,47.784541
1909.481944,47.784541
1933.481944,47.885197
1957.481944,47.885197
1981.481944,47.984884
2005.481944,48.084571
2029.481944,47.984884
2053.481944,47.885197
2077.481944,47.885197
2101.481944,47.684854
2125.481944,47.585167
2149.481944,47.484511
2173.481944,47.184481
2197.481944,47.184481
2221.481944,47.384824
2245.481944,46.385047
2269.481944,46.285359
2293.481944,46.184704
2317.481944,46.685077
2341.481944,46.784764
2365.481944,46.885419
2389.481944,46.885419
2413.481944,46.885419
2437.481944,47.184481
2461.481944,47.384824
2485.481944,47.384824
2509.481944,47.384824
2533.481944,47.384824
2557.481944,47.384824
2581.481944,47.285137
2605.481944,46.085017
2629.481944,46.885419
2653.481944,46.685077
2677.481944,46.685077
2701.481944,47.084794
2725.481944,46.985107
2749.481944,47.184481
2773.481944,47.084794
