time,pressure
0.0,493.509156
0.25,465.508614
0.5,453.509349
0.75,444.509417
1.0,440.50934
1.25,440.50934
1.5,438.508817
1.75,437.50904
2.0,435.509485
2.5,432.509185
3.0,429.508885
3.25,427.008957
3.5,425.009402
4.0,421.409042
4.5,418.509398
5.0,414.80935
5.5,413.509543
6.0,408.50872
6.5,404.509611
7.0,401.509311
7.5,399.508788
8.0,396.509456
8.5,393.509156
9.0,390.508856
9.5,388.409613
10.5,384.509223
11.5,379.008996
12.5,375.109574
13.5,370.309094
14.5,366.409672
15.5,361.708879
16.5,357.709769
17.5,353.809379
18.5,350.009644
19.5,347.209687
20.5,343.408984
21.5,340.50934
22.5,337.609695
22.533333,336.60895
23.5,333.808992
24.5,331.909125
25.5,329.90957
26.5,328.009703
27.5,326.109835
28.5,325.10909
29.5,324.109312
30.5,324.109312
31.5,324.109312
31.566667,324.109312
32.5,324.109312
33.5,323.209222
34.5,323.209222
35.5,323.209222
36.483333,323.209222
36.733333,323.209222
36.816667,323.209222
37.5,322.209445
38.5,322.209445
39.5,322.209445
40.5,322.209445
41.5,321.209668
42.5,321.209668
43.5,320.309578
44.5,320.309578
45.5,320.309578
46.5,319.3098
46.566667,319.3098
47.5,319.3098
48.5,317.609308
49.5,318.309055
50.066667,312.40911
50.5,312.40911
51.5,312.40911
51.566667,312.40911
52.5,312.40911
53.5,312.40911
54.5,312.40911
54.566667,312.40911
55.5,311.709363
56.5,311.709363
56.566667,311.709363
57.5,310.709585
57.966667,305.509388
58.5,305.509388
59.5,305.509388
60.5,305.509388
61.5,304.708985
62.5,304.708985
63.5,304.708985
64.5,303.709208
64.65,303.709208
65.5,303.709208
65.65,298.409323
66.5,298.409323
67.5,298.409323
68.5,298.409323
69.5,298.409323
69.65,298.409323
70.5,297.609888
71.5,297.609888
72.5,296.609143
72.65,296.609143
73.5,295.67905
74.5,290.209794
75.5,289.709421
76.5,289.709421
77.5,289.709421
77.65,289.709421
78.5,288.709643
79.5,288.709643
80.5,287.709866
80.65,287.709866
81.5,286.709121
82.5,285.809031
83.5,285.809031
84.5,280.409459
85.5,280.409459
86.5,280.409459
87.5,279.509369
88.5,279.509369
89.5,278.609279
90.5,278.609279
91.5,277.609501
92.5,276.709411
92.65,276.709411
93.5,271.809244
94.5,271.809244
95.5,271.809244
96.5,270.249088
97.5,270.299415
97.65,270.299415
98.5,270.299415
99.5,269.309316
100.5,268.309539
101.5,268.309539
102.5,267.409449
102.65,267.409449
103.5,266.409672
104.5,260.909444
105.5,260.909444
106.5,260.909444
107.5,260.909444
108.5,260.909444
109.5,260.009354
110.5,259.009577
111.5,259.009577
112.5,258.009799
113.5,257.109709
114.5,257.109709
115.5,256.109932
116.5,250.209987
117.5,250.209987
118.5,250.209987
119.5,250.209987
120.5,249.709614
121.5,249.709614
122.5,248.709837
123.5,247.71006
124.5,246.80997
125.5,246.80997
126.5,245.809224
127.5,244.809447
128.5,239.209532
129.5,239.209532
130.5,239.209532
131.5,239.209532
132.5,238.710127
133.5,238.710127
134.5,237.810037
135.5,237.810037
136.5,236.809292
137.5,235.809515
138.5,235.809515
139.5,234.909425
140.5,233.909647
141.5,229.419844
142.5,229.409197
143.5,229.409197
144.5,229.409197
145.5,228.609763
146.5,228.609763
147.5,227.709673
148.5,227.709673
149.5,226.809583
150.5,226.809583
151.5,225.809805
152.5,224.810028
153.5,224.810028
154.5,218.509398
155.5,218.509398
156.5,218.509398
157.5,218.509398
158.5,218.509398
159.5,217.909338
160.5,217.909338
161.5,216.90956
162.5,216.90956
163.5,215.909783
164.5,215.909783
165.5,215.009693
166.5,214.009915
167.5,214.009915
168.5,213.010138
169.5,212.009393
170.5,212.009393
171.5,211.009615
172.5,210.109525
173.5,210.109525
174.5,209.209435
175.5,209.209435
176.5,208.209658
177.5,200.809563
178.5,200.809563
179.5,200.809563
180.5,200.809563
181.5,200.809563
182.5,200.809563
183.5,200.809563
184.5,200.809563
185.5,200.809563
186.5,200.010128
187.5,200.010128
188.5,199.009383
189.5,199.009383
190.5,198.109293
191.5,198.109293
192.5,197.210171
193.5,197.210171
194.5,190.410136
195.5,191.610256
196.5,191.610256
197.5,191.610256
198.5,191.610256
199.5,191.610256
200.5,191.610256
201.5,191.610256
202.5,190.509824
203.5,190.509824
204.5,190.509824
205.5,190.509824
206.5,190.509824
207.5,190.509824
208.5,190.509824
209.5,190.509824
210.5,185.609656
211.5,185.609656
212.5,186.710089
213.5,186.710089
214.5,187.709866
215.5,187.709866
216.5,188.709643
217.5,189.709421
217.75,189.709421
218.5,190.710166
219.5,192.610034
219.6,193.709498
219.766667,195.710021
219.933333,204.709953
220.266667,217.409933
220.433333,222.3101
220.6,225.609462
220.766667,226.60924
220.95,229.509853
221.183333,232.509185
221.5,248.709837
221.733333,254.309752
222.0,253.309974
222.783333,250.209987
223.0,256.109932
223.15,261.809534
223.316667,264.309462
223.6,266.109642
223.683333,267.039735
223.783333,269.770008
223.85,272.339619
223.966667,274.419505
224.016667,275.869327
226.733333,277.01912
226.783333,276.009664
227.783333,273.110019
228.283333,272.109274
228.783333,270.109719
229.283333,268.309539
229.783333,267.209106
230.783333,263.809089
231.783333,261.509504
232.783333,259.709324
233.783333,257.709769
234.783333,255.809902
235.783333,254.909812
236.783333,253.109632
237.783333,252.109854
238.783333,251.009422
239.783333,250.109332
240.783333,249.209242
241.783333,248.209464
242.0,248.279149
242.966667,249.349578
243.333333,250.299996
243.35,250.299996
243.783333,250.299996
244.283333,250.299996
244.783333,250.109332
245.783333,250.209987
246.783333,250.209987
247.783333,249.109554
248.783333,248.209464
249.783333,248.209464
250.783333,248.209464
251.783333,248.209464
252.783333,248.209464
253.783333,248.209464
254.783333,248.209464
255.783333,248.209464
256.783333,248.209464
257.783333,248.209464
258.783333,247.209687
259.783333,247.209687
260.783333,247.209687
261.783333,247.209687
261.983333,290.509824
262.15,290.509824
263.15,290.509824
264.15,290.509824
265.15,290.509824
266.15,290.509824
267.15,290.509824
267.233333,290.509824
267.466667,318.509398
268.283333,315.509098
269.033333,311.20899
269.283333,311.20899
269.533333,311.20899
269.783333,311.20899
270.283333,310.90896
270.783333,312.209735
271.283333,318.509398
271.783333,317.80965
272.15,324.009625
272.283333,324.009625
272.783333,320.609608
273.283333,324.409342
297.45,326.109835
297.566667,326.109835
297.783333,326.109835
298.316667,310.409555
299.316667,308.109003
300.316667,304.708985
301.316667,302.809118
302.316667,297.909918
303.316667,294.709276
304.316667,294.009528
305.316667,291.109884
306.316667,286.409091
307.316667,280.509146
308.316667,281.009519
309.316667,281.009519
310.316667,280.209116
311.316667,278.309249
312.316667,277.409159
313.316667,276.309694
314.316667,274.409826
315.316667,273.409081
316.316667,272.409304
317.316667,269.309316
318.316667,268.309539
319.316667,267.309762
320.316667,265.609269
321.316667,264.409149
322.316667,262.609937
323.316667,262.409594
324.316667,261.709847
325.316667,259.509949
326.316667,258.309829
327.316667,256.609337
328.316667,255.209842
329.316667,254.709469
330.316667,253.910034
331.316667,252.909289
332.316667,251.909512
333.316667,250.909734
334.316667,249.909957
335.316667,249.909957
336.316667,249.009867
337.316667,248.709837
338.316667,247.71006
339.316667,247.11
340.316667,247.009344
341.316667,247.009344
342.316667,244.209387
343.316667,242.209832
344.316667,241.309742
345.316667,240.609995
346.316667,240.309965
347.316667,240.309965
348.316667,239.709905
349.316667,239.30922
350.316667,238.410097
351.316667,237.209977
352.316667,237.009635
353.316667,236.409575
354.316667,236.009857
355.316667,235.400119
356.316667,234.509707
357.316667,233.609617
358.316667,233.609617
359.316667,232.60984
360.316667,231.610063
361.316667,231.610063
362.316667,230.709973
363.316667,230.709973
364.316667,229.709227
365.316667,227.709673
366.316667,227.709673
367.316667,227.309955
368.316667,226.809583
369.316667,225.909493
370.316667,225.909493
371.316667,225.209745
372.316667,224.909715
373.316667,224.109312
374.316667,223.009848
375.316667,222.61013
376.316667,222.01007
377.316667,221.71004
378.316667,221.009325
379.316667,220.009548
380.316667,220.109235
381.316667,220.109235
382.316667,219.60983
383.316667,219.109458
384.316667,218.10968
385.316667,218.10968
398.816667,344.309074
399.316667,331.309065
399.816667,327.609017
400.316667,327.609017
400.816667,325.809805
401.316667,323.90897
401.816667,321.909415
402.316667,320.009548
403.316667,316.209813
404.316667,312.509765
405.316667,309.509465
406.316667,309.509465
407.316667,303.509833
408.316667,301.509311
409.316667,299.509756
410.316667,297.509233
411.316667,294.509901
412.316667,292.509378
413.316667,290.509824
414.316667,289.509078
415.316667,288.309926
416.316667,286.409091
417.316667,285.509969
418.316667,283.609133
419.316667,282.609356
420.316667,281.709266
421.316667,280.709489
422.316667,279.909086
423.316667,277.809844
424.316667,275.709634
425.316667,275.809321
426.316667,274.809544
427.316667,273.509736
428.316667,272.909676
429.316667,271.509214
430.316667,270.009064
431.316667,269.009286
432.316667,267.509136
433.316667,267.109419
434.316667,266.109642
435.316667,265.009209
436.316667,264.109119
437.316667,263.209997
438.316667,262.309907
439.316667,261.409817
440.316667,260.410039
441.316667,259.409294
442.316667,258.409517
443.316667,257.509427
444.316667,256.609337
445.316667,255.609559
446.316667,256.509649
447.316667,255.709247
448.316667,255.509872
449.316667,254.709469
450.316667,253.809379
451.316667,253.809379
452.316667,252.709914
453.316667,251.809824
454.316667,251.809824
455.316667,250.810047
456.316667,249.809302
457.316667,249.809302
458.316667,248.909212
459.316667,248.909212
460.316667,248.01009
461.316667,247.11
462.316667,247.11
463.316667,246.009567
464.316667,246.009567
465.316667,245.209164
466.316667,245.209164
467.316667,244.1097
468.316667,244.1097
469.316667,243.20961
470.316667,242.709237
471.316667,242.209832
472.316667,242.209832
473.316667,241.309742
474.316667,241.309742
475.316667,241.309742
476.316667,240.309965
477.316667,240.309965
478.233333,240.309965
478.272778,240.309965
478.273056,240.309965
478.75,242.30952
478.9,243.50964
479.233333,244.610072
479.733333,245.709537
480.4,249.609927
480.733333,252.009199
481.233333,254.409439
481.733333,256.409962
482.233333,258.009799
482.566667,317.009248
483.733333,318.009025
484.233333,326.00918
485.233333,308.309345
486.233333,308.409033
487.233333,308.309345
488.233333,307.309568
489.233333,308.409033
490.233333,309.309123
491.233333,310.309868
492.233333,311.309645
493.233333,312.309423
494.233333,314.20929
495.233333,314.959365
496.233333,317.009248
497.233333,318.009025
498.233333,319.00977
499.233333,320.009548
500.233333,320.709295
501.233333,321.909415
502.233333,322.909192
503.233333,323.90897
504.233333,324.80906
505.233333,325.809805
506.233333,326.809583
507.233333,327.709673
508.233333,328.70945
509.233333,329.709227
510.233333,330.709005
511.233333,331.70975
678.233333,334.509707
678.733333,328.509107
679.233333,323.509252
679.733333,318.509398
680.233333,313.509543
680.733333,308.509688
681.233333,302.509088
681.733333,296.509456
682.233333,291.509601
682.733333,284.509223
683.233333,278.509591
684.233333,269.509659
685.233333,261.509504
686.233333,252.509572
687.233333,245.509194
688.233333,238.509785
689.233333,233.50993
690.233333,228.510075
691.233333,222.509475
692.233333,218.509398
693.233333,216.509843
694.233333,213.509543
695.233333,212.509765
696.233333,211.509988
697.233333,211.509988
698.233333,212.509765
699.233333,212.509765
700.233333,212.509765
701.233333,212.509765
702.233333,213.509543
703.233333,213.509543
704.233333,213.509543
705.233333,213.509543
707.233333,213.509543
708.233333,212.509765
709.233333,211.509988
709.983333,210.509243
710.066667,210.509243
710.733333,216.509843
711.233333,216.509843
711.733333,229.509853
712.233333,231.509407
720.233333,275.509291
722.716667,412.508798
723.233333,436.509262
723.733333,442.508894
724.233333,442.508894
724.733333,444.509417
725.233333,420.508952
725.733333,376.509069
726.233333,378.509591
726.733333,355.508904
727.233333,355.508904
727.733333,356.509649
728.233333,356.509649
729.233333,356.509649
732.233333,356.509649
733.233333,356.509649
734.233333,356.509649
735.233333,356.509649
736.233333,356.509649
737.233333,356.509649
738.233333,356.509649
739.233333,356.509649
740.233333,356.509649
741.233333,356.509649
742.233333,356.509649
742.65,356.509649
743.233333,357.509427
744.233333,357.509427
745.233333,357.509427
746.233333,357.509427
747.233333,357.509427
748.233333,358.509204
749.233333,359.508981
750.233333,269.509659
751.733333,270.509436
752.233333,271.509214
1112.233333,346.192489
1112.733333,344.192934
1113.233333,342.192411
1113.733333,340.192856
1114.233333,337.192556
1115.233333,334.193224
1115.733333,328.192624
1116.233333,324.192547
1116.733333,322.192992
1117.233333,319.192692
1117.733333,317.193137
1118.233333,316.192392
1119.233333,312.193282
1119.733333,310.19276
1120.233333,309.192982
1120.733333,306.192682
1121.233333,304.193127
1122.233333,300.19305
1123.233333,298.192527
1124.233333,295.193195
1125.233333,292.192895
1126.233333,292.192895
1127.233333,278.193108
1128.233333,273.193253
1129.233333,264.193321
1130.233333,260.193243
1131.233333,259.192498
1132.233333,255.193389
1133.233333,253.192866
1134.233333,250.192566
1135.233333,248.193011
1136.233333,243.193156
1137.233333,240.192856
1138.233333,237.192556
1139.233333,234.193224
1140.233333,230.193147
1141.233333,227.192847
1142.233333,224.193514
1143.233333,221.193214
1144.233333,218.192914
1145.233333,216.19336
1146.233333,213.19306
1147.233333,211.193505
1148.233333,209.192982
1149.233333,206.192682
1150.233333,204.193127
1151.233333,201.192827
1152.233333,199.193272
1153.233333,196.192972
1154.233333,193.19364
1155.233333,191.193118
1156.233333,189.193563
1157.233333,187.19304
1158.233333,186.193263
1159.233333,184.19274
1160.233333,182.193185
1161.233333,180.193631
1162.233333,179.192885
1163.233333,177.193331
1164.233333,176.193553
1165.233333,175.192808
1166.233333,174.193031
1167.233333,172.193476
1168.233333,171.193698
1169.233333,170.192953
1170.233333,168.193398
1171.233333,167.193621
1172.233333,166.192876
1173.233333,165.193098
1174.233333,164.193321
1175.233333,163.193543
1176.233333,162.192798
1177.233333,161.193021
1178.233333,161.193021
1179.233333,160.193243
1180.233333,159.193466
1181.233333,158.193689
1182.233333,157.192943
1183.233333,156.193166
1184.233333,155.193389
1185.233333,154.193611
1186.233333,153.192866
1187.233333,152.193089
1188.233333,151.193311
1189.233333,151.193311
1190.233333,150.193534
1191.233333,149.193756
1192.233333,148.193011
1193.233333,147.193234
1194.233333,146.193456
1195.233333,142.193379
1196.233333,139.193079
1197.233333,138.193302
1198.233333,137.193524
1199.233333,136.193747
1200.233333,135.193001
1200.566667,135.193001
1200.983333,135.193001
1201.233333,139.193079
1202.233333,152.193089
1202.65,153.192866
1203.233333,159.193466
1203.983333,174.193031
1205.233333,174.193031
1206.233333,166.192876
1207.233333,167.193621
1208.233333,167.193621
1209.233333,163.193543
1210.233333,166.192876
1210.983333,154.193611
1212.233333,173.193253
1213.233333,174.193031
1214.233333,171.193698
1215.233333,172.193476
1216.233333,168.193398
1217.233333,164.193321
1218.233333,159.193466
1219.233333,156.193166
1220.233333,152.193089
1221.233333,148.193011
1222.233333,147.193234
1223.233333,141.193602
1224.233333,137.193524
1225.233333,135.193001
1226.233333,132.193669
1227.233333,130.193147
1228.233333,128.193592
1229.233333,127.193814
1230.233333,126.193069
1231.233333,125.193292
1232.233333,125.193292
1233.233333,125.193292
1234.233333,124.193514
1235.233333,124.193514
1236.233333,124.193514
1237.233333,124.193514
1238.233333,124.193514
1239.233333,124.193514
1240.233333,124.193514
1241.233333,124.193514
1242.233333,124.193514
1243.233333,124.193514
1244.233333,124.193514
1245.233333,123.193737
1246.233333,123.193737
1247.233333,123.193737
1248.233333,123.193737
1249.233333,122.192992
1250.233333,122.192992
1251.233333,122.192992
1252.233333,123.193737
1253.233333,123.193737
1254.233333,123.193737
1255.233333,122.192992
1256.233333,122.192992
1257.0,122.192992
1257.233333,123.193737
1257.65,128.193592
1257.983333,139.193079
1258.233333,144.192934
1258.316667,147.193234
1258.733333,155.193389
1258.9,158.193689
1259.233333,161.193021
1260.066667,158.193689
1260.233333,157.192943
1260.316667,157.192943
1260.483333,156.193166
1261.233333,153.192866
1262.233333,149.193756
1263.233333,145.193679
1264.233333,141.193602
1265.233333,139.193079
1266.233333,136.193747
1267.233333,134.193224
1268.233333,132.193669
1269.233333,130.193147
1270.233333,128.193592
1271.233333,127.193814
1272.233333,126.193069
1273.233333,125.193292
1274.233333,124.193514
1275.233333,124.193514
1276.233333,123.193737
1277.233333,123.193737
1278.233333,122.192992
1279.233333,121.193214
1280.233333,121.193214
1281.233333,121.193214
1291.066667,120.193437
1291.233333,120.193437
1292.066667,120.193437
1292.233333,119.19366
1293.233333,118.192914
1294.233333,117.193137
1295.233333,117.193137
1296.233333,117.193137
1297.233333,116.19336
1298.233333,116.19336
1299.233333,116.19336
1300.233333,115.193582
1301.233333,115.193582
1302.233333,114.193805
1303.233333,114.193805
1304.233333,114.193805
1305.233333,114.193805
1306.233333,114.193805
1307.233333,114.193805
1308.233333,114.193805
1309.233333,114.193805
1310.233333,114.193805
1311.233333,114.193805
1312.233333,114.193805
1313.233333,114.193805
1313.316667,114.193805
1314.233333,114.193805
1315.233333,114.193805
1316.233333,114.193805
1317.233333,114.193805
1318.233333,115.193582
1319.233333,115.193582
1320.233333,115.193582
1321.233333,115.193582
1322.233333,115.193582
1323.233333,115.193582
1324.233333,115.193582
1325.233333,115.193582
1326.233333,115.193582
1327.233333,115.193582
1328.233333,116.19336
1329.233333,116.19336
1330.233333,116.19336
1331.233333,115.193582
1332.233333,115.193582
1333.233333,115.193582
1334.233333,115.193582
1335.233333,115.193582
1336.233333,115.193582
1337.233333,115.193582
1338.233333,115.193582
1339.233333,115.193582
1340.233333,115.193582
1341.233333,115.193582
1342.233333,115.193582
1343.233333,115.193582
1344.233333,115.193582
1345.233333,115.193582
1346.233333,115.193582
1347.233333,115.193582
1348.233333,115.193582
1349.233333,115.193582
1350.233333,115.193582
1351.233333,115.193582
1352.233333,115.193582
1353.233333,115.193582
1354.233333,115.193582
1355.233333,115.193582
1356.233333,115.193582
1357.233333,114.193805
1358.233333,114.193805
1359.233333,114.193805
1360.233333,114.193805
1361.233333,114.193805
1362.233333,114.193805
1363.233333,114.193805
1364.233333,114.193805
1365.233333,114.193805
1366.233333,114.193805
1367.233333,114.193805
1368.233333,114.193805
1369.233333,114.193805
1370.233333,114.193805
1371.233333,114.193805
1372.233333,114.193805
1373.233333,114.193805
1374.233333,114.193805
1375.233333,113.19306
1376.233333,113.19306
1377.233333,113.19306
1378.233333,113.19306
1379.233333,114.193805
1380.233333,113.19306
1381.233333,114.193805
1382.233333,114.193805
1383.233333,114.193805
1384.233333,113.19306
1385.233333,113.19306
1386.233333,113.19306
1387.233333,112.193282
1388.233333,112.193282
1389.233333,112.193282
1390.233333,112.193282
1391.233333,112.193282
1391.9,112.193282
1392.233333,112.193282
1393.233333,112.193282
1394.233333,112.193282
1395.233333,112.193282
1396.233333,112.193282
1397.233333,112.193282
1398.233333,112.193282
1398.733333,112.193282
1399.233333,112.193282
1400.233333,112.193282
1401.233333,112.193282
1402.233333,111.193505
1403.233333,111.193505
1404.233333,111.193505
1405.233333,111.193505
1406.233333,111.193505
1407.233333,111.193505
1408.233333,111.193505
1409.233333,110.193727
1410.233333,110.193727
1411.233333,110.193727
1412.233333,110.193727
1413.233333,110.193727
1414.233333,110.193727
1415.233333,110.193727
1416.233333,110.193727
1417.233333,110.193727
1418.233333,110.193727
1419.233333,110.193727
1420.233333,110.193727
1421.233333,110.193727
1422.233333,110.193727
1423.233333,110.193727
1424.233333,110.193727
1425.233333,110.193727
