time,pressure
0.0,263.438492
0.548611,263.312673
1.239167,263.138462
1.923889,262.993286
2.485278,262.886823
3.139167,262.731969
3.747778,262.60615
4.325,262.528723
5.019722,262.422261
5.564722,262.373869
6.2075,262.286763
6.741944,262.219015
7.197778,262.160944
8.413056,262.044804
9.0625,261.967377
9.647222,261.880271
10.265833,261.841558
10.920833,261.773809
11.462222,261.70606
12.1,261.638312
12.651389,261.570563
13.363056,261.493136
14.0375,261.415709
14.5475,261.357638
15.201111,261.280211
15.791389,261.202784
16.414722,261.135035
17.041111,261.086643
17.616389,261.009216
18.271944,260.98986
18.924444,260.922111
19.509444,260.844684
20.142778,260.786613
20.743056,260.718865
21.395556,260.641438
22.053056,260.583367
22.439444,260.583367
22.656667,260.515619
23.300556,260.438192
23.498611,260.438192
23.986944,260.351086
24.591944,260.312372
25.291111,260.351086
25.538889,260.351086
25.958056,260.331729
26.554444,260.283337
26.614444,260.283337
26.885278,260.283337
27.198333,260.234945
27.840278,260.176875
27.899444,260.176875
28.16,260.176875
28.473056,260.099448
29.168889,260.099448
29.201667,260.012342
29.739722,260.012342
29.765833,259.944594
30.375,259.857488
30.772778,259.857488
31.047778,259.857488
31.270278,259.760704
32.073889,259.663921
32.122222,259.663921
32.392778,259.663921
32.652222,259.634885
33.289167,259.576815
33.406944,259.576815
33.687778,259.576815
33.973889,259.518745
34.530556,259.712312
34.710556,259.712312
34.988056,259.712312
35.1825,259.702634
35.730833,259.654242
36.025833,259.654242
36.337222,259.654242
36.375556,259.60585
37.072222,259.567137
37.344444,259.567137
37.654722,259.567137
37.688611,259.499388
38.382222,259.334855
38.711944,259.334855
39.015833,259.334855
39.046667,259.228393
40.048611,259.228393
40.371667,259.228393
41.038611,258.94772
41.376389,258.94772
41.651389,258.870293
41.745833,258.870293
42.356944,258.792866
42.7575,258.792866
42.895833,258.715439
43.078333,258.715439
43.407222,258.676725
43.973333,258.599298
44.145278,258.599298
44.450556,258.599298
44.507778,258.550906
45.171944,258.463801
45.451667,258.463801
45.771944,258.463801
45.796111,258.425087
46.438333,258.337982
46.778611,258.337982
47.033889,258.337982
47.058333,258.260554
47.651111,258.202484
48.048611,258.202484
48.274722,258.125057
48.320556,258.125057
48.843333,258.057308
49.388611,258.057308
49.484444,257.999238
49.644722,257.999238
50.158611,257.931489
50.7225,257.931489
50.749444,257.892776
51.001944,257.892776
51.411389,257.825027
52.012778,257.825027
52.033056,257.786313
52.285278,257.786313
52.649167,257.737921
53.2925,257.737921
53.313611,257.650816
53.548333,257.650816
53.909722,257.602424
54.545278,257.544354
54.607778,257.544354
54.888889,257.544354
55.288889,257.476605
55.915833,257.476605
56.234444,257.476605
56.288056,257.418535
56.885556,257.370143
57.247222,257.370143
57.523611,257.331429
57.774444,257.331429
58.181667,257.273359
58.768889,257.244324
58.817222,257.244324
59.068333,257.244324
59.331111,257.195932
59.901944,257.186253
60.124444,257.186253
60.431944,257.186253
60.579167,257.137861
61.243333,257.099148
61.446667,257.099148
61.7275,257.099148
61.834167,257.070113
62.460833,257.041078
62.776111,257.041078
63.0575,257.041078
63.094167,257.012042
63.661111,256.973329
64.061667,256.973329
64.293333,256.779761
64.345278,256.779761
64.883611,256.721691
65.369722,256.721691
65.528611,256.692656
65.657222,256.692656
66.22,256.653942
66.706111,256.653942
66.82,256.60555
66.993056,256.60555
67.448889,256.537801
68.058056,256.537801
68.117778,256.499088
68.323333,256.499088
68.669722,256.441018
69.325278,256.363591
69.386389,256.363591
69.645833,256.363591
69.903889,256.315199
70.749167,256.315199
71.0075,256.315199
71.195,256.170023
71.820833,256.121631
72.051667,256.121631
72.315833,256.121631
72.431944,256.044204
73.054167,255.976455
73.319722,255.976455
73.584722,255.899028
73.623056,255.899028
74.2075,255.840958
74.628611,255.840958
74.761389,255.782887
74.885,255.782887
75.371944,255.695782
75.895833,255.695782
76.011111,255.64739
76.148333,255.64739
76.615278,255.579641
77.173611,255.579641
77.252222,255.511892
77.440833,255.511892
77.820833,255.444144
78.431389,255.366717
78.490556,255.366717
78.784444,255.366717
79.365,255.279611
79.791667,255.279611
80.061667,255.279611
80.153889,255.202184
80.708056,255.163471
81.101667,255.163471
81.295556,255.1054
81.368056,255.1054
81.873056,255.066687
82.372778,255.066687
82.395278,255.037651
82.651111,255.037651
83.029444,255.008616
83.558889,254.969903
83.758333,254.969903
84.016111,254.969903
84.223611,254.950546
84.841667,254.921511
85.031944,254.921511
85.288333,254.921511
85.438611,254.892476
86.121389,254.853762
86.351944,254.853762
86.648889,254.853762
86.675556,254.824727
87.274167,254.80537
87.733056,254.80537
87.817222,254.776335
88.016944,254.776335
88.425,254.737621
89.043333,254.737621
89.074722,254.698908
89.318056,254.698908
89.630278,254.68923
90.307222,254.650516
90.358056,254.650516
90.648056,254.650516
90.848611,254.631159
91.48,254.582767
91.658889,254.582767
91.935556,254.582767
92.115833,254.56341
92.625,254.544054
92.994167,254.544054
93.268333,254.544054
93.298611,254.524697
93.916944,254.50534
94.310833,254.50534
94.523889,254.476305
94.573333,254.476305
95.15,254.456948
95.630278,254.456948
95.819722,254.437591
96.468333,254.398878
97.143056,254.379521
97.7475,254.340808
98.372778,254.311772
99.046389,254.253702
99.636111,254.214989
100.234167,254.14724
100.861944,254.118205
101.511944,254.060134
102.168611,254.011742
102.757222,253.973029
103.346389,253.914959
104.3875,253.837531
105.115833,253.798818
105.730556,253.750426
106.3525,253.692356
106.976111,253.643964
107.566667,253.66332
108.215833,253.66332
108.840833,253.634285
109.526667,253.614929
110.197778,253.595572
110.751667,253.576215
111.471944,253.527823
112.138333,253.498788
112.744167,253.469753
113.399444,253.440718
114.085556,253.411682
114.685278,253.382647
115.359167,253.334255
115.965278,253.30522
116.368889,253.30522
116.603333,253.237471
117.272778,253.18908
117.395556,253.18908
117.65,253.18908
117.910556,253.150366
118.5225,253.101974
118.728333,253.101974
118.985556,253.101974
119.188056,253.053582
119.829722,252.976155
120.010278,252.976155
120.290556,252.976155
120.446667,252.927763
121.297778,252.927763
121.760278,252.782587
122.443056,252.695482
123.083611,252.64709
123.651944,252.618055
124.295556,252.569663
124.9225,252.530949
125.582778,252.492236
126.227778,252.443844
127.436389,252.356738
127.436667,252.356738
128.691389,252.308346
129.478889,252.259954
130.181389,252.192206
130.761111,252.172849
131.363333,252.134135
131.8875,252.124457
132.51,252.085743
133.148611,252.076065
133.876944,252.04703
134.543333,252.037351
135.058889,252.037351
135.813611,251.998638
136.113611,251.998638
136.382222,251.998638
136.442222,251.98896
136.996111,251.969603
137.441667,251.969603
137.616111,251.940568
137.6975,251.940568
138.273056,251.930889
138.714167,251.930889
138.881667,251.901854
138.977222,251.901854
139.533333,251.901854
140.16,251.901854
140.183056,251.872819
140.424167,251.872819
140.83,251.834105
141.421389,251.80507
141.483889,251.80507
141.814722,251.80507
142.170556,251.795392
142.753611,251.766357
142.821667,251.766357
143.094167,251.766357
143.327222,251.737321
143.951944,251.68893
144.098611,251.68893
144.410556,251.68893
144.548889,251.650216
145.185,251.630859
145.469167,251.630859
145.723611,251.630859
145.756944,251.601824
146.389444,251.582467
146.758611,251.582467
146.994167,251.56311
147.051944,251.56311
147.639444,251.534075
148.070833,251.534075
148.269444,251.50504
148.332778,251.50504
148.903333,251.50504
149.354444,251.50504
149.501111,251.476005
149.606111,251.476005
150.129167,251.456648
150.635278,251.456648
150.687222,251.44697
150.894722,251.44697
151.429167,251.427613
152.022222,251.427613
152.2875,251.427613
152.325278,251.388899
152.956667,251.388899
153.299167,251.388899
153.541944,251.359864
153.595,251.359864
154.183889,251.350186
154.610833,251.350186
154.829444,251.330829
154.880278,251.330829
155.362222,251.311472
155.929722,251.311472
155.988333,251.282437
156.223889,251.282437
156.629444,251.234045
157.255278,251.234045
157.301944,251.224367
157.5525,251.224367
157.973611,251.26308
158.593889,251.26308
158.641944,251.253402
158.891944,251.253402
159.284167,251.253402
159.853056,251.175975
159.912222,251.175975
160.212778,251.175975
160.448611,251.137261
161.108889,251.098548
161.246944,251.098548
161.502778,251.098548
161.724167,251.069513
162.356111,251.059834
162.533056,251.059834
162.787778,251.059834
162.984167,251.030799
163.597778,251.001764
163.806944,251.001764
164.094444,251.001764
164.244167,250.972729
164.817778,250.953372
165.105556,250.953372
165.385556,250.953372
165.425278,250.924337
166.063889,250.895302
166.421389,250.895302
166.699722,250.895302
166.724444,250.856588
167.338889,250.827553
167.720278,250.827553
167.934444,250.798518
167.988333,250.798518
168.523333,250.769483
169.028056,250.769483
169.076667,250.740448
169.284444,250.740448
169.740833,250.730769
170.293333,250.730769
170.348611,250.682377
170.56,250.682377
171.003611,250.653342
171.568889,250.653342
171.619722,250.633985
171.863056,250.633985
172.238333,250.595272
172.811111,250.595272
172.922778,250.595272
173.183889,250.595272
173.439722,250.556558
174.024722,250.527523
174.194167,250.527523
174.451389,250.527523
174.6175,250.498488
175.439167,250.459774
175.439444,250.459774
175.519722,250.459774
175.869167,250.459774
176.321111,250.392026
176.915833,250.392026
176.941111,250.353312
177.216667,250.353312
177.584167,250.324277
178.208056,250.30492
178.2575,250.30492
178.512778,250.30492
178.573611,250.285563
178.794167,250.275885
178.967222,250.275885
179.539722,250.24685
179.599167,250.24685
179.871389,250.24685
180.1525,250.237171
180.765,250.198458
180.904722,250.198458
181.192222,250.198458
181.343889,250.179101
181.959722,250.159744
182.25,250.159744
182.54,250.159744
182.568889,250.130709
183.196944,250.111352
183.547778,250.111352
183.666667,250.091996
183.817778,250.091996
184.344444,250.072639
184.830556,250.072639
184.976389,250.06296
185.136111,250.06296
185.604722,250.043604
186.150278,250.043604
186.195556,250.024247
186.794444,250.00489
187.393056,249.985533
187.970556,249.966177
188.544444,249.94682
189.176389,249.937141
189.803333,249.927463
190.405556,249.908106
190.994722,249.898428
191.6075,249.888749
192.215,249.869393
192.829167,249.859714
193.447778,249.850036
194.062778,249.830679
194.726111,249.821001
195.314444,249.791966
195.875556,249.772609
196.471944,249.753252
197.0025,249.733895
198.218889,249.695182
198.852778,249.733895
199.487222,249.714539
200.484722,249.685503
201.027222,249.666147
201.498333,249.666147
201.611944,249.666147
202.253611,249.637111
202.503889,249.637111
202.798056,249.637111
202.815278,249.627433
203.477222,249.617755
203.801389,249.617755
204.055,249.617755
204.071389,249.608076
204.663611,249.588719
205.069167,249.588719
205.266111,249.579041
205.324167,249.579041
206.341667,249.579041
206.467778,249.569363
206.603056,249.569363
207.075556,249.559684
207.639722,249.559684
207.679722,249.540328
207.898889,249.540328
208.316944,249.530649
208.913333,249.520971
208.959722,249.520971
209.25,249.520971
209.496944,249.511292
210.052778,249.501614
210.270833,249.501614
210.576111,249.501614
210.663333,249.482257
211.326667,249.4629
211.622778,249.4629
211.893611,249.453222
211.9425,249.453222
212.552222,249.424187
212.987222,249.424187
213.076944,249.424187
213.2825,249.424187
213.738333,249.40483
214.287778,249.40483
214.388333,249.395152
214.551111,249.395152
214.966944,249.375795
215.537778,249.356438
215.591667,249.356438
215.875,249.356438
216.208611,249.366117
216.778056,249.34676
216.891667,249.34676
217.147222,249.34676
217.410833,249.327403
218.021389,249.337081
218.199444,249.337081
218.463056,249.337081
218.738056,249.317725
219.341389,249.317725
219.503333,249.317725
219.785,249.317725
219.934722,249.298368
220.558889,249.288689
220.806667,249.288689
221.0725,249.288689
221.203889,249.279011
221.831389,249.259654
222.081667,249.259654
222.339722,249.259654
222.461389,249.240298
223.046111,249.230619
223.416667,249.230619
223.500556,249.201584
223.735556,249.201584
224.639722,249.191906
224.7425,249.191906
225.006944,249.191906
225.222778,249.172549
225.783333,249.153192
226.022778,249.153192
226.285833,249.153192
226.355278,249.143514
226.993889,249.143514
227.288056,249.143514
227.58,249.124157
228.264167,249.114479
228.803333,249.1048
229.397778,249.1048
230.024444,249.075765
230.585278,249.075765
231.081389,249.056408
231.605833,249.037051
232.232778,249.04673
232.838611,249.027373
233.448611,249.027373
234.056667,249.027373
234.730556,249.027373
235.311389,249.008016
235.985833,248.998338
237.116389,248.988659
237.749444,248.978981
238.360556,248.959624
239.647778,248.930589
240.263333,248.920911
240.829444,248.911232
241.490556,248.901554
242.086389,248.891876
242.746944,248.891876
243.31,248.882197
243.886667,248.872519
245.009722,248.86284
245.583611,248.853162
246.139722,248.86284
246.727222,248.843484
247.568333,248.843484
248.328889,248.833805
248.924444,248.824127
249.504167,248.824127
250.101667,248.814449
250.756389,248.795092
251.313056,248.795092
251.801944,248.785413
252.353611,248.795092
252.416667,248.795092
252.941667,248.785413
253.419722,248.785413
253.493333,248.795092
253.731111,248.795092
254.0675,248.785413
254.698333,248.775735
254.79,248.775735
255.061667,248.775735
255.33,248.785413
255.840556,248.775735
256.068611,248.775735
256.343333,248.766057
256.957222,248.756378
257.500278,248.756378
258.046389,248.7467
258.662222,248.737021
258.878333,248.737021
259.386111,248.737021
259.974444,248.727343
260.598611,248.717665
261.253056,248.688629
261.854444,248.688629
262.326389,248.688629
262.463611,248.669273
263.076111,248.669273
263.333889,248.669273
263.678056,248.659594
264.309444,248.640238
264.827778,248.649916
265.421111,248.640238
266.030833,248.630559
266.659722,248.630559
267.296944,248.620881
267.876111,248.611202
268.460556,248.601524
269.087778,248.611202
269.731111,248.611202
270.323611,248.601524
270.971667,248.601524
271.5825,248.591846
271.582778,248.591846
272.565833,248.591846
272.634444,248.591846
273.204722,248.591846
273.636667,248.591846
273.853333,248.582167
274.496111,248.572489
275.109444,248.56281
275.748889,248.56281
276.401944,248.553132
277.001944,248.553132
277.624722,248.533775
278.213333,248.524097
278.8375,248.514419
279.525556,248.50474
280.121111,248.50474
280.720833,248.50474
281.309167,248.495062
281.934444,248.495062
282.509167,248.495062
283.096667,248.495062
283.836389,248.495062
284.303611,248.485383
284.849722,248.485383
284.909444,248.475705
285.513889,248.466027
286.822222,248.44667
287.47,248.456348
288.088333,248.44667
288.718056,248.436991
289.310278,248.436991
289.902778,248.436991
290.501111,248.436991
291.106111,248.427313
291.714167,248.427313
292.243611,248.436991
292.821111,248.427313
293.434722,248.436991
294.0675,248.427313
294.733611,248.427313
295.581667,248.407956
296.248611,248.398278
296.879444,248.398278
297.485,248.398278
298.050556,248.398278
298.591389,248.388599
299.238611,248.388599
299.873889,248.388599
300.475,248.378921
301.066944,248.359564
301.643056,248.340208
302.215,248.282137
302.8575,248.282137
303.428056,248.291816
304.670278,248.311172
305.348611,248.311172
305.955556,248.311172
306.6725,248.311172
307.318611,248.311172
307.943056,248.320851
308.584167,248.311172
309.171944,248.311172
309.821389,248.301494
310.347778,248.301494
310.875278,248.301494
311.341944,248.301494
311.849444,248.291816
312.372778,248.291816
312.878889,248.291816
313.415556,248.291816
314.026111,248.282137
314.639444,248.282137
315.183611,248.272459
315.848611,248.272459
316.439722,248.272459
316.978611,248.26278
317.469722,248.26278
317.941944,248.253102
318.433056,248.253102
318.955,248.253102
319.594167,248.233745
320.479722,248.214388
321.041667,248.195032
321.552222,248.175675
322.032778,248.175675
322.531667,248.175675
323.153333,248.165997
323.746667,248.156318
324.278611,248.14664
324.876389,248.14664
325.46,248.136961
326.070833,248.136961
326.661389,248.127283
327.285,248.117605
328.014444,248.107926
328.608889,248.107926
329.346944,248.098248
329.875,248.098248
330.348889,248.088569
330.858056,248.088569
331.3275,248.088569
331.823333,248.088569
332.338611,248.078891
332.841667,248.069213
333.235833,248.069213
333.720278,248.069213
334.213889,248.069213
334.746389,248.059534
335.192222,248.069213
335.736111,248.059534
336.288056,248.059534
337.014444,248.059534
337.596389,248.049856
338.201944,248.049856
338.854444,248.040178
339.461944,248.040178
339.743611,248.040178
340.075556,248.049856
340.725556,248.040178
340.7825,248.040178
341.263333,248.030499
341.9025,248.011142
342.480833,248.020821
343.064722,248.011142
343.665278,248.011142
344.551667,248.001464
345.148056,247.991786
345.816111,247.982107
346.454722,247.972429
347.0775,247.953072
347.662222,247.953072
348.269722,247.943394
348.903889,247.924037
349.541389,247.924037
350.129722,247.895002
350.749167,247.90468
351.251111,247.895002
351.916667,247.895002
352.520278,247.895002
353.108611,247.885323
353.750833,247.875645
354.384444,247.875645
355.016944,247.865967
355.605278,247.856288
356.21,247.856288
356.81,247.856288
357.4375,247.856288
358.007222,247.84661
358.577778,247.84661
359.187778,247.856288
359.855,247.836931
360.456111,247.836931
361.030556,247.836931
361.642222,247.836931
362.221667,247.836931
362.883333,247.827253
364.093889,247.817575
364.731667,247.807896
365.286389,247.807896
365.917222,247.798218
366.485556,247.798218
367.075278,247.798218
367.71,247.788539
368.625833,247.778861
369.208056,247.788539
369.848056,247.798218
370.437222,247.807896
371.045833,247.798218
371.657222,247.798218
372.234722,247.788539
372.877778,247.788539
373.496389,247.798218
374.083333,247.798218
374.735833,247.798218
375.334722,247.788539
375.986944,247.788539
376.584722,247.788539
377.193333,247.778861
377.815,247.769183
378.441667,247.778861
379.027222,247.769183
379.6375,247.769183
380.243611,247.759504
380.893056,247.759504
381.505556,247.759504
382.088056,247.749826
382.726667,247.740148
383.280556,247.730469
383.933889,247.720791
384.513056,247.720791
385.032222,247.720791
385.622222,247.711112
386.253056,247.711112
386.905278,247.691756
387.503333,247.682077
388.086389,247.691756
388.741389,247.682077
389.301389,247.682077
389.983611,247.682077
390.589167,247.672399
391.212222,247.66272
391.790556,247.66272
392.8425,247.643364
393.445,247.643364
394.025,247.633685
394.6325,247.633685
395.242222,247.624007
395.829444,247.624007
395.898056,247.624007
396.528611,247.624007
396.844722,247.624007
397.135833,247.624007
397.814167,247.614328
398.354167,247.614328
398.989167,247.614328
399.593056,247.594972
400.183333,247.585293
400.809167,247.575615
401.359167,247.575615
402.0025,247.565937
402.636111,247.565937
403.244444,247.556258
403.886944,247.556258
404.485833,247.565937
405.066111,247.54658
405.677222,247.536901
406.255,247.536901
406.929167,247.536901
407.503889,247.536901
408.073889,247.527223
408.745556,247.527223
409.305556,247.527223
409.920833,247.517545
410.539722,247.517545
411.120833,247.517545
411.751944,247.507866
412.349444,247.498188
412.936944,247.507866
413.527778,247.498188
414.091111,247.498188
414.750833,247.507866
415.286667,247.507866
415.860278,247.498188
416.970556,247.488509
417.565833,247.478831
418.176667,247.478831
418.870556,247.478831
419.370833,247.488509
419.961111,247.469153
420.553056,247.469153
421.1,247.469153
421.673333,247.478831
422.275278,247.459474
422.902222,247.449796
423.4825,247.449796
424.081111,247.449796
424.744722,247.440118
425.295833,247.440118
425.857778,247.440118
425.929722,247.440118
426.543611,247.440118
427.858611,247.430439
428.471944,247.430439
429.126944,247.420761
429.784722,247.420761
430.343056,247.420761
430.963056,247.411082
