time,pressure
0.0,206.205178
3.629444,206.282605
7.210833,206.354225
9.434167,206.456816
12.979444,206.436492
14.737222,206.279702
15.614167,206.050324
19.900556,205.918698
22.153889,205.893534
24.268056,206.155818
32.885833,206.326158
33.7925,205.861595
36.931111,204.613083
38.757778,202.744187
40.555,200.522029
43.297778,198.341488
44.650556,196.562601
46.012222,191.939235
48.769167,186.16511
57.248056,179.955456
57.728333,179.017621
59.937222,178.01494
62.217222,176.542857
64.532222,175.103681
65.960556,173.04412
72.128611,171.719149
74.011944,170.647751
77.533056,169.617003
79.295833,168.911449
80.719444,168.198152
83.505,167.568089
86.7825,166.966093
88.182778,166.299252
90.419722,165.74468
91.857778,165.035255
94.411667,164.641344
95.934167,164.252273
97.569722,163.521555
103.091389,162.814065
105.4,162.304014
110.039167,161.446509
111.783611,161.081633
114.531944,160.224128
117.606944,159.991847
118.15,159.652136
122.993611,157.928415
127.709722,157.030261
131.006944,156.341159
131.484167,155.675286
134.226111,154.781971
136.563056,153.91382
137.488889,152.992437
140.273333,151.9433
146.488333,150.689949
148.461667,149.730821
151.310833,149.315618
154.992778,148.601353
156.424722,148.012907
158.681111,147.553184
160.9725,146.992805
161.870833,146.326932
166.991667,145.83527
170.7575,144.262532
190.646389,141.69292
191.555833,141.341595
194.348333,141.033822
196.617778,140.641848
199.558889,140.307943
200.955556,139.935325
205.177778,139.771761
206.987778,139.598517
208.911667,139.502701
211.56,139.40011
212.944444,139.287841
214.789167,139.178475
216.246667,139.0333
219.453611,138.490342
223.493333,138.270643
223.969444,138.084818
227.218611,137.653162
229.57,137.251509
231.503333,136.931154
233.383056,136.579828
235.308889,136.324319
237.524722,136.466591
239.35,136.697905
241.1575,137.104397
242.941667,137.270865
244.774722,137.372488
247.376389,137.46153
249.7375,137.354099
251.174722,136.866309
253.040556,136.574021
255.793611,136.103652
257.611111,135.784265
259.4175,135.578115
259.884722,135.435843
262.664167,135.280989
265.053056,135.0971
266.923056,134.843526
268.317778,134.689639
271.270556,134.490265
274.900556,133.715026
279.936944,133.338537
283.613333,132.88462
286.965278,132.574912
291.606389,132.305853
294.083333,132.179066
295.466389,132.099703
297.336667,132.00679
298.259722,131.954527
301.143889,131.97098
305.7325,131.937106
307.106111,131.888714
310.851389,131.819998
315.544444,131.754185
316.950833,131.619655
319.93,131.555778
320.906944,131.470608
321.317222,131.380599
322.223889,131.16961
326.320833,130.926682
327.709167,130.685691
330.440278,130.526965
331.846944,130.257906
334.153333,129.854317
340.866944,129.46815
344.675,129.394594
346.544722,130.573421
366.351944,132.820743
368.6975,132.189712
370.537222,131.643851
371.956389,131.410602
372.890278,131.308011
377.89,131.193806
380.163056,131.137671
382.030556,131.145414
387.285,131.145414
389.498056,131.121218
392.681667,131.058309
394.520833,131.069923
395.886944,131.046694
398.793333,130.929586
400.657778,130.793121
402.031389,130.723436
404.383611,130.722469
406.308333,130.721501
407.719722,130.593746
413.951111,130.56955
416.204444,130.589875
418.957222,130.575357
420.327222,130.458249
422.508333,130.379854
426.171667,130.380821
428.473056,130.42631
429.848333,130.375014
432.110278,130.319848
434.848889,130.272424
438.246944,130.293716
439.604167,130.265649
442.3825,130.13983
443.788611,130.110794
446.951111,130.059499
450.658611,129.989815
452.926111,129.959812
455.328056,129.922066
456.6675,129.878513
458.484444,129.83496
462.354167,129.836896
465.124444,130.012075
465.558056,130.210482
489.558056,129.823346
513.558056,129.436211
537.558056,130.791185
561.558056,130.307266
585.558056,129.532995
609.558056,129.145859
633.558056,130.40405
657.558056,133.791485
681.558056,135.727163
705.558056,133.017214
729.558056,132.92043
753.558056,132.146159
777.558056,131.855808
801.558056,131.565456
825.558056,131.759024
849.558056,131.66224
873.558056,131.468672
897.558056,132.242943
921.558056,131.468672
945.558056,131.081537
969.558056,130.307266
993.558056,128.565156
1017.558056,130.984753
1041.558056,128.081237
1065.558056,129.436211
1089.558056,130.307266
1113.558056,130.500833
1137.558056,136.985353
1161.558056,136.017514
1185.558056,134.952892
1209.558056,134.468972
1233.558056,134.275404
1257.558056,134.275404
1281.558056,134.372188
1305.558056,133.597917
1329.558056,133.307566
1353.558056,132.823646
1377.558056,132.630079
1401.558056,132.146159
1425.558056,131.952592
1449.558056,132.242943
1473.558056,132.049375
1497.558056,133.113998
1521.558056,131.759024
1545.558056,132.726863
1569.558056,133.017214
1593.558056,132.339727
1617.558056,131.66224
1641.558056,131.178321
1665.558056,130.887969
1689.558056,131.178321
1713.558056,130.40405
1737.558056,130.597617
1761.558056,130.113698
1785.558056,129.726562
1809.558056,129.436211
1833.558056,129.339427
1857.558056,129.145859
1881.558056,129.049075
1905.558056,129.049075
1929.558056,129.049075
1953.558056,129.242643
1977.558056,129.823346
2001.558056,129.145859
2025.558056,129.145859
2049.558056,129.726562
2073.558056,134.66254
2097.558056,132.92043
2121.558056,130.40405
2145.558056,129.242643
2169.558056,129.629779
2193.558056,129.242643
2217.558056,128.855508
2241.558056,127.887669
2265.558056,127.500533
2289.558056,127.113398
2313.558056,126.629479
2337.558056,126.532695
2361.558056,126.048775
2385.558056,126.629479
2409.558056,130.984753
2433.558056,131.081537
2457.558056,130.307266
2481.558056,130.016914
2505.558056,130.016914
2529.558056,130.016914
2553.558056,129.92013
2577.558056,129.92013
2601.558056,130.113698
2625.558056,129.726562
2649.558056,130.113698
2673.558056,129.629779
2697.558056,129.436211
2721.558056,129.823346
2745.558056,129.629779
2769.558056,129.823346
2793.558056,130.887969
2817.558056,129.726562
2841.558056,129.339427
2865.558056,129.242643
2889.558056,129.629779
2913.558056,128.66194
2937.558056,128.468372
2961.558056,128.274804
2985.558056,128.274804
3009.558056,127.790885
3033.558056,127.984453
3057.558056,127.694101
3081.558056,127.887669
3105.558056,127.694101
3129.558056,127.887669
3153.558056,127.597317
3177.558056,127.500533
3201.558056,127.40375
3225.558056,127.500533
3249.558056,127.597317
3273.558056,127.40375
3297.558056,127.40375
3321.558056,127.597317
3345.558056,127.306966
3369.558056,127.210182
3393.558056,127.306966
3417.558056,126.823046
3441.558056,126.823046
3465.558056,127.016614
3489.558056,126.823046
3513.558056,127.016614
3537.558056,126.339127
3561.558056,126.435911
3585.558056,129.242643
3609.558056,126.726262
3633.558056,124.887369
3657.558056,126.435911
3681.558056,124.40345
3705.558056,123.532395
3729.558056,125.66164
3753.558056,127.306966
3777.558056,127.694101
3801.558056,128.081237
3825.558056,128.855508
3849.558056,129.049075
3873.558056,129.339427
3897.558056,129.242643
3921.558056,127.887669
3945.558056,127.306966
3969.558056,130.597617
3993.558056,126.823046
4017.558056,126.048775
4041.558056,125.17772
4065.558056,126.823046
4089.558056,128.66194
4113.558056,128.952292
4137.558056,129.339427
4161.558056,129.629779
4185.558056,130.113698
4209.558056,128.758724
4233.558056,127.40375
4257.558056,126.629479
4281.558056,133.501133
4305.558056,132.049375
4329.558056,129.242643
4353.558056,128.952292
4377.558056,128.371588
4401.558056,127.887669
4425.558056,127.984453
4449.558056,127.306966
4473.558056,127.694101
4497.558056,128.371588
4521.558056,127.694101
4545.558056,128.758724
4569.558056,127.597317
4593.558056,131.952592
4617.558056,136.114298
4641.558056,139.017814
4665.558056,145.695901
4689.558056,132.146159
4713.558056,132.146159
4737.558056,131.66224
4761.558056,130.984753
4785.558056,130.887969
4809.558056,130.984753
4833.558056,130.694401
4857.558056,130.887969
4881.558056,130.694401
4905.558056,130.694401
4929.558056,130.984753
4953.558056,130.887969
4977.558056,130.984753
5001.558056,131.371888
5025.558056,131.275104
5049.558056,131.371888
5073.558056,131.081537
5097.558056,131.66224
5121.558056,131.66224
5145.558056,131.855808
5169.558056,132.242943
5193.558056,131.66224
5217.558056,131.952592
5241.558056,132.533295
5265.558056,133.113998
5289.558056,132.533295
5313.558056,132.630079
5337.558056,132.92043
5361.558056,132.726863
5385.558056,132.630079
5409.558056,132.630079
5433.558056,132.436511
5457.558056,132.726863
5481.558056,132.823646
5505.558056,132.823646
5529.558056,132.630079
5553.558056,132.436511
5577.558056,132.630079
5601.558056,132.630079
5625.558056,132.436511
5649.558056,132.726863
5658.960556,132.861392
5660.614167,132.897202
5663.2175,132.885588
5665.303333,132.71912
5667.400278,132.658146
5673.557778,132.751058
5684.379722,132.637821
5684.807778,132.644596
5685.214444,132.643628
5688.961944,132.665889
5697.557778,132.474257
5700.018056,132.585558
5702.100278,132.542005
5703.333333,132.492646
5706.124167,132.47716
5709.319444,132.663953
5710.993889,132.721055
5713.100556,132.614593
5717.238611,132.689117
5718.070833,132.812032
5720.168333,132.924302
5721.557778,132.648468
5722.683333,132.834293
5723.910833,132.783965
5727.649722,133.000761
5732.417222,132.957208
5733.326389,132.873006
5738.154722,132.953337
5742.232778,132.897202
5743.465,132.739444
5745.557778,132.79074
5746.386944,132.738477
5747.646667,132.758801
5750.575833,132.619432
5752.237778,132.373601
5754.114167,132.225522
5755.327222,131.828708
5756.170278,132.130674
5758.674722,132.043568
5759.089444,131.940977
5761.303056,131.546099
5767.888889,131.43383
5769.557778,132.301981
5770.778611,131.418345
5772.558333,131.257683
5774.504722,131.171546
5775.334167,131.138639
5778.799722,131.158964
5780.796389,131.202517
5782.864722,131.102829
5784.580278,130.895712
5785.402778,130.844416
5788.223611,130.785378
5791.559722,130.719565
5793.557778,130.998303
5793.688889,130.550193
5796.998056,130.375014
5800.740556,130.432117
5802.543056,130.41276
5806.716389,130.322751
5807.954722,130.31888
5809.931944,130.387596
5812.345278,130.319848
5816.980278,130.208546
5817.557778,130.221128
5819.393611,130.307266
5822.5275,130.496962
5824.611389,130.444699
5826.116111,130.388564
5827.269444,130.358561
5831.449167,130.391468
5831.946667,130.405017
5834.378333,130.419535
5836.810278,130.194029
5839.776389,130.120473
5841.557778,130.246292
5843.084167,130.168865
5858.884444,129.854317
5861.665,129.836896
5864.543056,129.924969
5865.557778,130.097245
5867.02,129.91142
5867.847778,129.832057
5870.432778,129.775922
5872.446389,129.888192
5876.808611,129.968522
5878.974722,129.847542
5880.301944,129.820443
5883.1425,129.860124
5884.9225,129.924002
5886.933611,129.928841
5888.565,129.787536
5889.557778,129.838832
5890.652222,129.714948
5891.458889,129.69172
5894.356111,129.704302
5898.132222,129.54848
5900.792778,129.381044
5903.7025,129.36943
5907.469444,129.349105
5909.377778,129.182637
5909.843889,129.158441
5911.566667,129.125535
5913.557778,129.482667
5915.462222,129.247482
5917.095833,129.222319
5918.407222,129.146827
5921.633056,128.950356
5922.622222,129.010362
5925.081944,129.124567
5927.1325,129.229093
5929.213056,129.164248
5931.281667,129.071336
5931.706389,129.08295
5934.178889,129.158441
5937.283333,129.179734
5937.557778,129.128438
5938.153889,129.162313
5940.104444,129.037461
5943.688333,128.97552
5949.074722,128.991005
5951.239722,128.942613
5952.474722,128.896157
5955.398611,128.93487
5957.509444,128.996812
5959.158889,129.014233
5961.557778,128.723882
5961.603056,128.883575
5962.008889,128.837119
5964.844722,128.715171
5967.336389,128.721946
5969.426944,128.643551
5971.256667,128.539992
5972.951389,128.429659
5976.667222,128.475147
5977.08,128.477083
5981.639444,128.498375
5982.883889,128.512893
5985.557778,128.416109
5985.766111,128.547735
5987.833333,128.588384
5988.235278,128.619355
5991.534167,128.600966
5992.818611,128.605805
5995.745,128.525475
5996.564167,128.550638
5999.461667,128.641615
6001.025833,128.739367
6002.619722,128.686136
6009.557778,128.428691
6017.319167,131.810319
6020.370833,133.829231
6022.256389,136.146237
6025.603889,138.294839
6027.688333,138.99265
6031.0375,138.754562
6032.695,137.538957
6033.557778,131.871293
6034.795278,136.611767
6036.87,135.588762
6038.100833,134.691575
6039.773611,133.723736
6042.127222,132.752994
6044.613889,132.2623
6046.246389,132.358116
6048.740278,131.862583
6050.396667,131.443508
6051.6675,131.180256
6054.5475,130.791185
6056.997778,130.564711
6057.557778,134.535753
6058.672778,130.374047
6060.740833,130.185318
6061.974444,130.06337
6064.423611,129.809797
6066.006944,129.65591
6068.650556,129.372334
6070.711944,129.228126
6072.330833,129.136181
6074.435278,128.973584
6075.968333,128.833247
6077.69,128.723882
6079.266111,128.62613
6081.557778,129.559126
6082.179444,128.587416
6084.295833,128.566124
6085.12,128.387074
6090.150278,128.245769
6093.896389,128.180924
6095.110833,128.098658
6095.523056,128.028006
6100.368056,127.874119
6102.566111,127.88283
6104.227778,127.86928
6105.557778,128.198345
6105.960278,127.652484
6107.994167,127.491823
6110.576944,127.375682
6112.076667,127.359229
6114.415556,127.308901
6115.698611,127.16179
6117.768611,126.983708
6121.938611,126.95564
6123.996389,126.931444
6125.228889,126.807561
6128.159167,126.640125
6129.557778,127.152111
6129.731944,126.668192
6131.825833,126.673999
6133.876111,126.732069
6136.311111,126.730134
6138.074167,126.755298
6140.485,127.021453
6143.281389,127.224699
6145.78,127.375682
6147.392222,127.538279
6150.351667,127.898315
6152.383333,128.167374
6153.557778,126.660449
6154.0375,128.333843
6156.490278,128.484825
6158.468611,129.015201
6163.536389,129.360719
6168.5,129.757533
6172.909444,130.117569
6177.557778,128.936806
6186.963333,130.18435
6189.045556,129.971426
6196.215278,129.879481
6197.445,129.878513
6201.230278,129.847542
6201.557778,130.284038
6202.867778,129.76818
6204.858333,129.708174
6206.914167,129.524284
6210.285833,129.431372
6212.362778,129.134245
6214.03,128.935838
6217.855,128.74711
6220.345278,128.64839
6222.409167,128.569995
6224.505833,128.201249
6225.557778,129.489442
6232.273889,128.134468
6234.061389,128.037684
6236.151667,127.860569
6238.244444,127.741525
6243.118611,127.64087
6244.791389,127.581832
6247.2725,127.406653
6248.955,127.274059
6249.557778,128.094786
6249.779444,127.232442
6252.246111,127.145337
6255.154167,127.05436
6256.400833,127.055328
6258.12,126.977901
6259.916111,126.840467
6262.440833,126.75433
6265.019444,126.758201
6267.101944,126.752394
6268.849167,126.725295
6269.268889,126.654642
6272.610556,126.6198
6273.557778,126.975965
6277.319722,126.722391
6278.966667,126.746587
6279.797222,126.74078
6282.746667,126.679806
6284.383333,126.680774
6286.91,126.732069
6288.154167,126.685613
6290.255833,126.624639
6292.739722,126.544309
6294.805556,126.612057
6296.438333,126.66916
6297.557778,126.643028
6298.014722,126.726262
6300.899444,126.795947
6303.070556,126.785301
6305.183056,126.847242
6307.428333,126.885956
6308.247222,126.907248
6311.493611,126.768847
6314.9,126.690452
6316.919444,126.661417
6317.744167,126.608186
6320.188889,126.600443
6321.557778,126.846274
6322.284444,126.529791
6325.383056,126.421393
6327.182222,126.456235
6329.200833,126.519145
6330.043333,126.595604
6333.437778,126.674967
6335.3675,126.74078
6337.446944,126.830789
6339.069167,126.807561
6345.557778,126.536566
6353.318889,126.292671
6354.08,126.222986
6359.430556,126.177498
6361.519722,126.158141
6361.945278,126.115556
6363.998889,126.072003
6367.258333,125.97038
6369.557778,126.008126
6369.606111,125.973284
6371.259167,125.905535
6372.794444,125.860047
6375.186944,125.800041
6377.658333,125.817462
6378.958333,125.779716
6380.899167,125.75552
6384.960833,125.704225
6390.168889,125.694546
6391.405556,125.631637
6393.459167,125.647122
6393.557778,125.50485
6394.815278,125.628733
6397.326389,125.627765
6399.784167,125.652929
6400.622778,125.722614
6406.602778,125.784555
6409.628889,125.64809
6415.267778,125.539692
6417.557778,125.33451
6417.91,125.589052
6418.309444,125.545499
6421.164722,125.45549
6423.240278,125.420648
6424.859722,125.384838
6426.685,125.435166
6429.112222,125.459362
6431.6175,125.402259
6432.871667,125.415809
6435.750833,125.393549
6439.026111,125.416777
6441.458889,125.481622
6441.557778,125.041255
6443.474444,125.544531
6445.946667,125.502914
6447.571667,125.514528
6449.645833,125.549371
6451.719444,125.547435
6457.0525,125.497107
6460.719722,125.480654
6463.611944,125.414841
6465.557778,125.08384
6465.670556,125.377095
6471.286944,125.295797
6474.051389,125.275472
6475.145,125.258051
6476.38,125.250308
6479.710556,125.27644
6483.849722,125.228048
6486.273333,125.181592
6487.914167,125.205788
6489.557778,125.008349
6489.967222,125.175785
6492.009722,125.136103
6493.619167,125.14191
6495.666944,125.315154
6499.536389,125.547435
6502.024722,125.738099
6503.670556,126.003287
6505.725278,126.302349
6513.557778,125.027705
6521.554167,127.695069
6525.816667,127.724104
6527.461111,127.749268
6530.306944,127.767657
6531.056667,127.856698
6533.488889,127.884765
6535.572778,127.912833
6537.557778,126.833693
6538.043056,127.889605
6540.056389,127.904122
6544.136667,128.01252
6546.353889,128.042523
6547.972222,128.076397
6548.802778,128.007681
6552.919722,127.907026
6554.961111,127.930254
6558.247778,127.997035
6560.297222,127.924447
6561.126111,127.885733
6561.557778,127.419235
6564.356111,127.884765
6565.984167,127.894444
6567.6075,127.928318
6570.306389,127.810242
6571.131667,127.757011
6572.738056,127.612803
6575.956389,127.708619
6577.1875,127.612803
6585.557778,127.283738
6586.674722,127.587639
6587.842778,127.599253
6590.281111,127.468595
6592.739167,127.457949
6593.534444,127.51118
6596.115,127.51989
6598.149722,127.577961
6600.184444,127.54699
6601.409444,127.630224
6609.5425,127.696037
6609.557778,126.964351
6611.874722,127.695069
6615.741389,127.771528
6618.083611,127.860569
6620.005833,127.817017
6620.826389,127.781207
6622.853889,127.738622
6626.865556,127.830566
6628.464167,127.774432
6630.920556,127.717329
6631.316111,127.665066
6633.557778,127.189857
6634.516111,127.675712
6635.218333,127.643774
6638.394167,127.650548
6639.624167,127.70378
6642.654167,127.587639
6643.053889,127.526665
6645.478333,127.534408
6648.718333,127.563443
6655.633056,127.529569
6657.557778,127.129851
6657.883056,127.584735
6662.382222,127.50634
6664.013333,127.450206
6667.016111,127.47053
6670.7225,127.529569
6671.508611,127.520858
6681.557778,126.950801
6690.509444,127.436656
6691.755556,127.51989
6696.513611,127.486016
6698.885556,127.466659
6700.400556,127.395039
6702.046389,127.381489
6705.557778,126.952737
6706.951111,127.317612
6708.997222,127.300191
6710.616389,127.29148
6712.663333,127.257606
6713.45,127.169533
6715.966111,127.136626
6718.493333,127.091138
6719.302778,127.106623
6722.988333,127.050488
6723.378611,127.043714
6726.244444,127.047585
6729.001389,127.071781
6729.557778,126.677871
6730.654722,127.069845
6731.884444,127.025325
6734.776667,127.005
6736.833333,127.002096
6738.067778,127.031132
6741.061389,127.126948
6743.513333,127.239217
6753.231667,127.433753
6753.557778,126.690452
6755.218333,127.468595
6757.223889,127.43472
6758.849167,127.43956
6760.066944,127.418267
6762.186389,127.47053
6764.633333,127.365036
6771.965278,127.495694
6774.4075,127.729911
6777.233056,127.854762
6777.557778,126.965319
6778.881944,128.020263
6780.510278,128.110272
6782.841667,128.453855
6785.291667,128.650326
6786.721111,128.660004
6789.225833,128.732592
6791.780833,128.94842
6796.4225,129.201994
6797.712778,129.322974
6800.849444,129.387819
6801.557778,128.03478
6802.953611,129.515574
6805.3625,129.593969
6807.506389,129.667524
6808.813889,129.675267
6811.180833,129.626875
6813.703611,129.558159
6815.345,129.549448
6816.611667,129.474924
6817.416111,129.406208
6821.077222,129.367494
6821.491667,129.114888
6825.557778,129.171991
6829.43,128.937774
6831.108056,128.902932
6833.186944,128.817762
6835.549722,128.636776
6837.645556,128.602902
6839.721944,128.522571
6842.642222,128.488697
6843.866389,128.40643
