time,pressure
0.0,300.707603
0.922222,298.161219
1.377778,296.991102
1.828889,293.757553
2.282778,277.798861
2.738611,264.625608
3.188333,254.995612
3.652222,245.007517
4.1025,236.481826
4.561944,228.573615
5.010556,221.615823
5.466111,215.073233
5.943333,208.80067
6.405833,202.742968
6.8825,196.771403
7.325556,191.553784
7.782778,186.40585
8.238333,181.13984
8.699444,175.507986
9.264444,169.178321
10.028889,161.454968
10.478889,156.567383
10.955833,151.707864
11.415278,147.342912
11.876389,142.377899
12.326389,137.036397
12.790556,131.605854
13.245556,126.496634
13.7125,121.404834
14.196944,116.363362
14.715556,111.243495
15.270556,108.078663
15.7325,114.476077
16.208611,115.492307
16.657778,111.437063
17.054444,107.85606
17.520833,103.316896
17.905833,100.006888
18.361389,96.290387
18.810278,92.883595
19.266667,89.118702
19.722222,86.302292
20.177778,84.037549
20.633333,81.143711
21.081111,78.278909
21.551111,75.443141
22.006944,72.81062
22.484444,70.284561
22.956389,68.019818
23.429167,65.90993
23.906389,64.003287
24.349722,62.483781
24.799722,61.070736
25.249444,63.858112
25.715833,70.884621
26.19,76.401301
26.642222,71.862138
27.095278,68.435989
27.556944,68.116602
28.015833,74.562408
28.472222,70.787837
28.930833,73.701031
29.380833,72.839655
29.817778,75.327
30.271111,77.9692
30.733056,83.940765
31.184167,89.07031
31.580278,93.338479
32.021111,97.867964
32.474167,102.27163
33.164167,108.659366
33.741111,113.701806
34.205278,117.592517
34.657778,121.183199
35.125833,124.714842
35.6025,128.179705
36.058889,131.39293
36.468889,134.210308
36.947778,137.383851
37.390278,140.31737
37.881111,143.414454
38.371667,150.973275
38.821667,175.856408
39.283333,212.043898
39.733333,225.874313
40.195556,220.889944
40.711667,207.165991
41.182778,197.457601
41.673333,188.844804
42.136389,183.299088
42.573333,178.063081
43.023333,172.527043
43.491389,163.389678
43.954444,154.659772
44.341944,147.489055
44.795278,140.656114
45.254722,133.881243
45.718889,127.648362
46.193889,121.638083
46.674722,119.644335
47.178611,119.91533
47.661111,119.836935
48.104167,120.562814
48.570556,120.475709
49.03,120.989631
49.479722,122.459778
49.944167,127.048302
50.399444,130.745446
50.849444,134.160948
51.298056,137.394498
51.748056,132.487555
52.203611,129.932461
52.658889,123.15759
53.060833,117.039881
53.500833,110.265978
53.962222,102.910404
54.442778,95.303192
54.910833,88.05408
55.371667,81.414706
55.831111,75.220538
56.281111,69.597395
56.749167,64.196855
57.320556,57.896225
58.0725,61.970826
58.534722,67.564934
58.996667,65.871216
59.452222,64.283961
59.869444,69.490933
60.329444,74.504338
60.813056,75.327
61.313333,71.881495
61.715278,71.252399
62.098611,65.338905
62.47,61.76758
62.858889,62.803167
63.281111,63.587117
63.695278,66.606774
64.094722,66.219638
64.497778,66.451919
64.879167,67.874642
65.247222,68.465024
65.587778,67.545577
65.964444,66.56806
66.338056,66.413206
66.699167,65.968
67.068333,65.803467
67.435,66.258352
67.768056,66.258352
68.158056,66.132533
68.525278,65.66797
68.894167,65.455046
69.252222,65.919608
69.62,66.761628
69.993611,66.558382
70.316667,66.916482
70.675278,66.587417
71.046944,66.103497
71.418056,66.490633
71.789444,66.664844
72.165278,66.558382
72.532222,66.500311
72.888611,65.813146
73.255556,66.422884
73.631944,67.090693
74.009444,66.751949
74.378056,66.171246
74.709444,66.20996
75.085833,66.20996
75.463889,66.635809
75.830833,66.732593
76.191944,67.197155
76.571111,67.042301
76.910833,67.129407
77.301389,67.816572
77.691667,68.077888
78.054722,67.642361
78.429167,67.303617
78.796389,67.119728
79.180278,67.400401
79.504444,67.564934
79.891111,67.129407
80.264722,67.129407
80.636111,67.293939
81.089167,67.090693
81.089444,67.090693
81.695278,67.371366
82.084444,66.974552
82.460833,67.748823
82.827778,68.571486
83.197222,68.387597
83.579722,67.76818
83.896667,67.961748
84.300556,67.845607
84.687222,68.348883
85.069722,68.358562
85.440278,69.016692
85.815556,68.542451
86.186667,68.416632
86.509444,68.465024
86.869722,67.961748
87.236667,68.232743
87.610278,69.123154
87.995278,69.074762
88.371389,68.387597
88.706389,68.435989
89.101667,68.706984
89.395,68.532773
89.796667,68.871516
90.163611,69.132833
90.543611,68.987657
90.920278,68.116602
91.3,68.977978
91.671944,69.336079
92.046389,69.055406
92.365556,68.590843
92.740278,68.12628
93.117222,67.787537
93.483889,68.12628
93.863056,68.765054
94.240278,68.755376
94.601389,68.755376
94.976667,68.648913
95.309167,68.571486
95.639444,68.358562
96.013056,68.513416
96.384722,68.716662
96.75,68.174672
97.128056,67.990783
97.507778,68.155316
97.831389,68.213386
98.196944,68.552129
98.5725,68.416632
98.944167,68.116602
99.311111,68.406954
99.696111,68.765054
100.074444,68.958622
100.444444,68.716662
100.794444,69.007014
101.175556,69.51029
101.551389,69.636109
101.951389,68.648913
102.340556,68.919908
102.746667,68.629557
103.129444,68.242421
103.516389,68.465024
103.845278,68.387597
104.236944,68.687627
104.614722,67.874642
105.085556,68.271456
105.693056,68.503737
106.066944,68.755376
106.449167,68.058532
106.825833,68.736019
107.214444,69.519968
107.6075,68.736019
107.984722,69.461898
108.304167,71.416932
108.683889,70.487807
109.055278,69.345757
109.433333,71.823424
109.790278,70.090993
110.168611,69.839355
110.554444,72.220238
110.944722,69.423184
111.320833,71.42661
111.658611,73.362288
112.036667,70.458772
112.419444,73.246147
112.790833,72.539625
113.166111,72.907404
113.5225,74.852759
113.907778,72.491233
114.244167,73.459072
114.630278,75.549603
115.005,72.394449
115.380556,74.707584
115.762778,74.446267
116.139167,73.759102
116.506111,75.772206
116.835556,74.465624
117.205556,74.543051
117.576944,76.720688
117.951389,73.788137
118.330556,75.539925
118.706667,76.478729
119.0425,74.514016
119.403611,77.156216
119.777778,76.923934
120.144167,76.46905
120.519444,78.395049
120.868611,75.985131
121.2575,76.440015
121.639444,77.785311
122.001389,74.146237
122.381667,76.333553
122.757778,75.56896
123.126944,74.320448
123.493611,76.275482
123.875833,73.913956
124.242222,74.494659
124.575556,76.430337
124.953056,73.304218
125.326944,75.327
125.693889,76.633583
126.061389,74.281735
126.428056,76.614226
126.802222,75.636709
127.173611,75.056006
127.525,76.894899
127.902778,74.562408
128.279722,75.394749
128.646389,77.446567
129.103889,74.291413
129.705,75.994809
130.072222,73.807494
130.438889,75.714136
130.801944,74.814046
131.141389,73.962348
131.520833,76.217412
131.918333,73.855886
132.252222,75.104398
132.616389,77.282035
132.990278,73.188077
133.361389,75.588317
133.728889,75.239895
134.113611,73.788137
134.4775,75.762528
134.851389,74.165594
135.179167,73.855886
135.544722,75.752849
135.911944,73.11065
136.283333,74.039775
136.919722,72.684801
137.234444,73.449393
137.612778,75.443141
138.000556,71.455646
138.376389,74.562408
138.741389,74.572086
139.117222,72.742871
139.449167,74.291413
139.823333,73.255826
140.195833,72.771906
140.575278,74.736619
140.945278,71.349183
141.334722,73.091293
141.709167,73.52682
142.034444,71.097545
142.397778,73.188077
142.776111,72.423484
143.145,71.620178
143.468889,73.420358
143.857222,71.900851
144.237222,72.684801
144.598056,74.997935
144.976389,70.981405
145.301667,72.984831
145.671389,74.455946
146.05,71.523394
146.418611,73.381645
146.785833,72.578338
147.113333,71.72664
147.471944,73.633283
147.840278,72.317022
148.218333,72.278308
148.6025,74.446267
148.98,70.565234
149.577778,74.417232
149.950556,71.416932
150.324444,73.671996
150.696111,74.301091
151.068056,71.9686
151.450833,73.730067
151.779167,72.704158
152.143056,71.823424
152.514444,73.555856
153.086667,71.165294
153.585,73.82685
153.956389,70.420058
154.323333,72.539625
154.695,73.284861
155.067222,70.981405
155.445,73.120328
155.790833,72.297665
156.165,71.949243
156.534722,74.504338
156.908333,71.833103
157.312778,72.800941
157.705833,73.439715
157.903333,71.36854
158.290278,72.404128
158.674722,73.836529
159.061944,71.145937
159.446667,73.188077
159.81,72.065384
160.217778,71.842781
160.613333,73.82685
161.026667,70.400701
161.416111,72.665444
161.830556,71.72664
162.242778,71.91053
162.643333,74.504338
163.049444,71.184651
163.458889,72.994509
163.88,71.097545
164.31,71.842781
164.731111,72.007314
165.121389,70.565234
165.583889,72.781585
165.847222,70.729767
166.295,71.039475
166.721944,71.42661
167.151944,70.197455
167.596944,72.462198
168.031111,69.519968
168.474722,72.191203
168.917778,69.781285
169.331944,71.184651
169.731389,71.242721
170.161111,70.129707
171.048333,69.152189
171.501111,71.475002
171.952222,68.619878
172.415556,70.729767
172.9375,68.435989
173.787222,70.178098
174.198889,69.916782
174.618889,71.852459
175.049167,68.861838
175.461667,70.816872
175.891389,68.91023
176.558056,71.339505
177.131389,69.239295
177.723056,70.41038
178.108889,69.152189
178.514444,71.300791
178.774722,70.294239
179.118611,69.384471
179.221944,69.965174
179.631111,72.646087
180.041389,69.539325
180.415278,71.204008
180.783056,70.449093
181.168056,70.061958
181.559722,71.920208
181.936111,68.997335
182.305,70.545877
182.625833,71.949243
182.985278,68.097245
183.383889,70.71041
183.764167,70.303918
184.164444,69.732893
184.547222,71.523394
184.918611,68.881195
185.2575,70.565234
185.638611,72.481555
186.032778,69.142511
186.406944,70.874942
186.823333,69.916782
187.218611,69.723214
187.622778,71.552429
188.015556,68.097245
188.378889,70.129707
188.746111,69.878068
189.126944,68.948943
189.511944,70.652339
189.898611,68.290813
190.276111,69.597395
190.6625,71.707284
191.049722,68.697305
191.42,70.76848
191.785278,70.032923
192.114167,69.616752
192.474444,71.387897
192.845278,69.955496
193.220278,70.342631
193.588611,72.084741
193.906389,69.394149
194.266389,70.574912
194.639167,72.229917
195.004444,69.287687
195.365,71.233043
195.734444,71.358862
196.095,70.371666
196.444722,72.297665
196.761111,72.142811
197.128611,71.020118
197.493333,72.694479
197.801389,71.620178
198.173056,71.078188
198.495,72.56866
198.879167,70.594269
199.233056,71.436289
199.558056,72.955796
199.926944,69.800641
200.292222,71.581465
200.652778,73.333253
201.107778,70.361988
201.641111,72.888047
202.005833,69.655466
202.365833,72.075062
202.726111,71.823424
203.086389,70.371666
203.440278,72.016992
203.770278,70.700731
204.161944,69.965174
204.546944,71.813746
204.934722,67.816572
205.291111,70.671696
205.6825,71.736319
206.034167,69.355436
206.411389,71.107224
206.81,70.158742
207.22,70.245847
207.609167,72.055706
207.985278,68.66827
208.3675,71.020118
208.743056,70.613626
209.128611,69.713536
209.495556,71.320148
209.864722,69.21026
210.238333,69.897425
210.599444,71.581465
210.9425,68.261778
211.33,70.197455
211.711111,70.894299
212.078333,69.123154
212.4525,71.01044
212.824167,69.936139
213.200278,69.86839
213.545278,72.075062
213.943333,69.239295
214.321389,71.204008
214.698889,72.162168
215.078333,69.800641
215.451944,71.281435
215.827222,69.355436
216.212778,69.413506
216.5975,71.184651
216.963611,67.322974
217.335556,70.042601
217.701111,70.952369
218.070278,68.706984
218.388889,70.294239
218.775278,69.616752
219.153333,69.258652
219.518056,71.097545
219.895,68.194029
220.266111,70.303918
220.629444,72.423484
221.008056,69.239295
221.384444,70.991083
221.754444,70.632983
222.121111,69.703857
222.448889,71.252399
222.808056,69.713536
223.192778,70.052279
223.573333,71.775032
223.943056,67.82625
224.307778,70.574912
224.679167,72.249273
225.147778,69.732893
225.734444,70.845907
226.045,69.181225
226.409722,71.436289
226.785833,70.545877
227.172222,70.41038
227.545278,71.6105
227.924722,66.935839
228.298056,68.997335
228.670833,70.671696
229.000833,67.090693
229.384444,69.413506
229.778056,68.706984
230.230556,68.581165
230.639722,70.574912
231.036389,67.593969
231.464167,70.032923
231.881667,67.381045
232.249167,69.094119
232.633611,71.658892
233.006111,68.465024
233.333611,70.603948
233.6975,71.765354
234.073056,69.432863
234.4725,71.339505
234.922222,67.855286
235.293056,70.352309
235.663889,71.794389
236.057222,68.784411
236.443333,70.594269
236.821944,68.832803
237.2,69.432863
237.523889,70.991083
237.891944,68.01014
238.265556,70.129707
238.652778,72.171846
239.040556,68.997335
239.443889,70.449093
239.831111,68.581165
240.236111,69.016692
240.632222,70.594269
241.020278,67.400401
241.418333,69.442541
241.773611,68.600521
242.163889,68.155316
242.539722,69.936139
242.903056,66.906804
243.291111,69.21026
243.625833,70.816872
243.993333,67.274582
244.367222,69.955496
244.738611,70.497485
245.106111,68.987657
245.484167,70.555556
245.805556,68.948943
246.179167,69.036049
246.543889,70.613626
246.905556,67.235869
247.265556,68.997335
247.64,70.729767
248.012222,67.448793
248.380556,69.597395
248.766944,69.56836
249.121944,68.755376
249.491389,70.449093
249.851667,68.12628
250.211667,69.200581
250.5325,71.174972
250.905278,68.039175
251.292222,69.800641
251.655,71.397575
252.003333,67.942391
252.371389,69.936139
252.7725,69.384471
253.181389,69.007014
253.375556,69.92646
253.708889,70.632983
254.175556,69.045727
254.587778,71.01044
255.010833,68.019818
255.423889,70.313596
255.827222,68.697305
256.170556,69.248973
256.571944,68.397275
256.961944,70.332953
257.445,72.384771
257.823056,69.132833
258.206389,70.565234
258.609167,68.387597
258.981389,69.549003
259.346111,71.107224
259.723056,67.448793
260.094444,69.849033
260.465833,70.720088
260.850278,68.736019
261.229167,70.429737
261.596111,68.552129
261.950556,69.248973
262.2825,70.681375
262.645278,67.797215
263.023889,69.858712
263.377778,71.813746
263.765556,68.881195
264.13,70.642661
264.501944,70.497485
264.873611,69.355436
265.228611,70.923334
265.587778,69.384471
266.156389,70.700731
266.658333,68.223064
267.034722,70.071636
267.399444,71.707284
267.773889,68.697305
268.145,70.439415
268.475278,71.349183
268.858056,69.694179
269.238611,71.107224
269.606389,68.997335
269.985556,69.907104
270.354444,71.36854
270.679444,67.642361
271.064167,70.090993
271.448333,71.649213
271.822778,68.832803
272.189722,70.565234
272.559167,69.345757
272.924722,69.374792
273.286389,71.000761
273.668333,67.816572
274.053611,70.236169
274.441944,72.287987
274.828333,69.597395
275.154167,70.749123
275.528333,70.197455
275.906667,69.558682
276.283056,71.000761
276.637222,68.377918
277.0125,69.761928
277.360556,71.242721
277.755278,68.097245
278.131389,70.265204
278.496389,70.332953
278.879167,69.074762
279.260556,70.778158
279.654167,67.981105
280.050278,70.071636
280.217222,71.06851
280.620556,69.016692
280.973611,70.216812
281.371944,71.91053
281.7725,68.842481
282.1775,70.691053
282.578333,69.229617
282.984167,69.732893
283.389167,71.407254
283.803056,68.716662
284.196111,70.623304
284.594444,68.929587
284.993333,69.781285
285.387222,71.542751
285.775833,68.532773
286.154722,70.632983
286.475556,71.12658
286.859444,69.355436
287.268889,71.871816
287.649444,69.065084
288.01,70.255526
288.385833,71.784711
288.746389,68.397275
289.062778,70.516842
289.428333,71.823424
289.790833,68.571486
290.247778,70.071636
290.851389,67.564934
291.211389,68.881195
291.535556,67.942391
291.890556,66.713236
292.250833,68.039175
292.6325,65.542151
292.998333,66.693879
293.358333,68.784411
293.668611,65.619578
294.042778,67.71011
294.409722,69.442541
294.770556,66.151889
295.146667,68.716662
295.510833,68.774732
295.884444,67.748823
296.22,69.636109
296.585556,68.194029
296.958056,68.697305
297.220278,69.907104
297.587778,68.31017
297.958056,68.852159
298.268889,70.487807
298.638056,68.01014
299.018889,69.636109
299.389444,71.871816
299.759722,68.794089
300.127778,70.758802
300.502222,70.671696
300.870556,69.316722
301.22,70.76848
301.543611,69.703857
301.921389,69.094119
302.296667,70.487807
302.684444,67.187477
303.065556,69.365114
303.4425,71.000761
303.802778,67.981105
304.1425,69.674822
304.524722,69.413506
304.905833,68.706984
305.4025,71.649213
305.778056,68.581165
306.147778,70.187777
306.477778,70.758802
306.881944,68.890873
307.279444,70.700731
307.654722,67.971426
308.062222,69.92646
308.461111,71.629857
308.857778,69.074762
309.280556,71.039475
309.662222,68.164994
310.036667,69.994209
310.421667,71.765354
310.806111,69.007014
311.185,71.387897
311.558611,70.816872
311.930833,70.197455
312.297222,71.72664
312.669167,68.842481
312.993611,70.46845
313.393889,72.191203
313.774444,69.161868
314.264444,71.513716
314.873056,69.684501
315.253333,71.291113
315.640278,68.948943
316.030278,70.236169
316.394722,71.784711
316.763889,68.465024
317.139444,71.165294
317.504722,71.542751
317.874722,70.120028
318.195556,71.262078
318.552222,70.584591
318.916944,70.139385
319.281389,71.794389
319.604444,69.723214
319.971667,70.207134
320.344444,71.755676
320.71,68.058532
321.083333,70.603948
321.442222,72.229917
321.809444,69.365114
322.187778,71.06851
322.656111,69.219938
323.036944,71.049153
323.408333,72.355736
323.767222,69.132833
324.148611,71.078188
324.473611,71.91053
324.841944,69.62643
325.213611,71.097545
325.585278,69.607074
325.782778,68.639235
326.058333,69.587717
326.441389,70.807194
326.806667,67.661718
327.1475,68.861838
327.521667,68.677948
327.914444,67.661718
328.274722,69.897425
328.648889,67.845607
329.018889,68.455346
329.368333,70.303918
329.747222,66.906804
330.080278,69.355436
330.456667,70.671696
330.665,67.22619
330.833889,67.864964
331.196667,69.674822
331.595556,68.261778
331.958889,68.619878
332.331111,70.323274
332.699444,66.800341
333.078611,69.287687
333.388889,70.691053
333.763611,67.390723
334.140833,69.723214
334.508611,70.071636
334.868889,68.561808
335.233333,70.884621
335.605556,69.374792
335.977778,69.636109
336.3475,71.204008
336.694167,67.835929
337.068333,69.945817
337.424722,71.349183
337.785,68.213386
338.259167,70.632983
338.865556,68.755376
339.233611,70.458772
339.599167,68.91023
339.948333,69.171546
340.281667,70.603948
340.662222,68.12628
341.038333,69.92646
341.401389,71.629857
341.768333,68.290813
342.141944,70.342631
342.463056,71.687927
342.8175,68.687627
343.232778,70.574912
343.613889,68.842481
343.817778,68.600521
344.081667,69.839355
344.453056,71.475002
344.851389,68.736019
345.228056,70.46845
345.550556,69.713536
345.938333,69.171546
346.318611,70.942691
346.908333,69.452219
347.289444,71.484681
347.681667,68.687627
348.081667,70.158742
348.459722,71.716962
348.840556,68.91023
349.231667,70.652339
349.618611,68.91023
350.026111,69.62643
350.430556,71.397575
350.835,68.697305
351.180278,70.197455
351.436389,71.358862
351.868333,68.823124
352.242222,70.400701
352.631667,68.474702
353.0175,69.365114
353.398056,71.281435
353.774167,68.06821
354.130556,70.439415
354.5225,70.778158
354.911667,69.365114
355.294444,70.797515
355.661667,68.232743
356.023333,69.849033
356.394722,71.929887
356.720556,68.077888
357.085833,70.400701
357.452778,72.220238
357.820556,69.413506
358.189444,71.513716
358.581111,70.594269
358.953611,70.632983
359.327222,72.578338
359.641944,70.11035
360.005,71.097545
360.365,72.965474
360.723611,69.490933
361.088333,71.949243
361.450556,73.71071
361.801111,70.729767
362.263333,72.558982
362.844167,70.594269
363.204167,72.297665
363.576667,71.436289
363.969444,71.281435
364.331389,72.878368
364.696667,69.645787
365.057778,71.66857
365.4225,73.120328
365.730556,69.278008
366.097778,71.736319
366.461111,73.391323
366.831944,70.642661
367.204722,72.917082
367.556667,72.152489
367.916944,71.329827
368.281667,72.713836
368.606667,71.107224
368.959722,71.291113
369.327778,72.859012
369.693611,69.781285
370.073889,71.678248
370.397222,73.042901
370.765278,69.500611
371.118611,71.765354
371.478889,73.246147
371.803611,70.129707
372.178889,72.162168
372.559722,71.707284
372.94,71.107224
373.636111,70.632983
373.996944,71.145937
374.351111,72.655766
374.680833,69.752249
375.044167,71.397575
375.419722,73.100971
375.801944,70.22649
376.197222,72.249273
376.853333,71.020118
377.222222,73.284861
377.580833,72.665444
377.970556,72.404128
378.361667,74.223664
378.736111,70.574912
379.178333,72.249273
379.555,71.891173
379.940278,70.623304
380.313889,71.978278
380.705,68.842481
381.030833,70.642661
