time,pressure
0.0,103.053603
0.01,102.878793
0.02,102.719565
0.03,102.569582
0.04,102.426621
0.05,102.289415
0.06,102.157124
0.07,102.029135
0.08,101.904984
0.09,101.784298
0.101111,101.6554
0.113333,101.514905
0.127222,101.362008
0.142778,101.195882
0.16,101.015688
0.179444,100.820575
0.201389,100.609696
0.226111,100.382208
0.253611,100.137287
0.284722,99.874135
0.319444,99.591989
0.358333,99.290138
0.401944,98.967926
0.451111,98.624772
0.506111,98.260173
0.567778,97.873722
0.637222,97.465112
0.715,97.034147
0.802222,96.580746
0.9,96.104954
1.009722,95.606937
1.133056,95.086988
1.271389,94.54552
1.426389,93.983067
1.600556,93.40027
1.795833,92.797874
2.014722,92.17671
2.260833,91.537689
2.536667,90.881779
2.846111,90.209996
3.193333,89.523388
3.583056,88.823017
4.020278,88.109943
4.510556,87.385216
5.061111,86.649859
5.678611,85.904858
6.371389,85.151157
7.148889,84.389645
8.021389,83.621156
9.0,82.846463
10.098056,82.06628
11.330278,81.281256
12.712778,80.491982
14.264167,79.69899
16.004444,78.902756
17.957222,78.103703
20.148611,77.302209
22.606944,76.498605
23.303611,76.286486
24.0,76.080498
24.01,76.077957
24.02,76.075384
24.03,76.072793
24.044167,76.069133
24.064722,76.063725
24.095,76.055732
24.139167,76.043914
24.204444,76.026446
24.3,76.000643
24.440278,75.962584
24.646389,75.906589
24.948611,75.82451
25.3925,75.704849
26.043889,75.531708
27.0,75.283741
28.403333,74.933437
30.463333,74.447325
33.486944,73.787916
37.924722,72.917999
44.438889,71.807066
46.219444,71.531325
48.0,71.265887
48.01,71.263677
48.02,71.261533
48.03,71.25943
48.044167,71.256528
48.064722,71.252349
48.095,71.246349
48.139167,71.237755
48.204444,71.225483
48.3,71.207997
48.440278,71.183134
48.646389,71.147834
48.948611,71.097757
49.3925,71.026755
50.043889,70.926135
51.0,70.783739
52.403333,70.582853
54.463333,70.301171
57.486944,69.91018
61.924722,69.375644
68.438889,68.659986
78.0,67.727085
92.033889,66.54896
94.016944,66.397266
96.0,66.248756
96.01,66.25231
96.02,66.255482
96.03,66.258427
96.044167,66.262276
96.064722,66.267466
96.095,66.274334
96.139167,66.283211
96.204444,66.29435
96.3,66.307799
96.440278,66.323219
96.646389,66.339627
96.948611,66.355074
97.3925,66.366258
98.043889,66.368081
99.0,66.35312
100.403333,66.31098
102.463333,66.227483
105.486944,66.083724
109.924722,65.855169
116.438889,65.511261
118.219444,65.417689
120.0,65.32465
120.01,65.322822
120.02,65.32111
120.03,65.319468
120.044167,65.317249
120.064722,65.314132
120.095,65.309786
120.139167,65.303775
120.204444,65.295528
120.3,65.284309
120.440278,65.269165
120.646389,65.248846
120.948611,65.221685
121.3925,65.185388
122.043889,65.136715
123.0,65.07099
124.403333,64.981423
126.463333,64.858205
129.486944,64.6874
133.924722,64.449755
140.438889,64.119727
142.219444,64.03263
144.0,63.946722
144.01,63.948111
144.02,63.949333
144.03,63.950456
144.044167,63.951909
144.064722,63.953842
144.095,63.956354
144.139167,63.959517
144.204444,63.963337
144.3,63.967684
144.440278,63.972186
144.646389,63.976088
144.948611,63.978062
145.3925,63.975967
146.043889,63.966554
147.0,63.945083
148.403333,63.904821
150.463333,63.836373
153.486944,63.726813
157.924722,63.558663
164.438889,63.308909
166.219444,63.240997
168.0,63.173397
168.01,63.170404
168.02,63.167644
168.03,63.165022
168.044167,63.161515
168.064722,63.156647
168.095,63.149959
168.139167,63.140876
168.204444,63.128697
168.3,63.112591
168.440278,63.09159
168.646389,63.064576
168.948611,63.030225
169.3925,62.986896
170.043889,62.932388
171.0,62.863561
172.403333,62.775771
174.463333,62.662111
177.486944,62.512457
181.924722,62.312363
188.438889,62.041935
190.219444,61.971312
192.0,61.901834
192.01,61.899579
192.02,61.897491
192.03,61.895501
192.044167,61.892832
192.064722,61.889115
192.095,61.883986
192.139167,61.876981
192.204444,61.867525
192.3,61.854911
192.440278,61.838286
192.646389,61.816613
192.948611,61.788607
193.3925,61.752602
194.043889,61.706326
195.0,61.64655
196.403333,61.568588
198.463333,61.465641
201.486944,61.327987
205.924722,61.142037
212.438889,60.889339
214.219444,60.82324
216.0,60.758189
216.01,60.760534
216.02,60.762639
216.03,60.7646
216.044167,60.767173
216.064722,60.770661
216.095,60.775306
216.139167,60.781367
216.204444,60.789069
216.3,60.798544
216.440278,60.809724
216.646389,60.822204
216.948611,60.835063
217.3925,60.846663
218.043889,60.854422
219.0,60.854546
220.403333,60.841694
222.463333,60.808509
225.486944,60.744992
229.924722,60.63768
236.438889,60.468709
238.219444,60.4216
240.0,60.374342
240.01,60.373983
240.02,60.373633
240.03,60.373287
240.044167,60.372808
240.064722,60.372115
240.095,60.371113
240.139167,60.36967
240.204444,60.367592
240.3,60.364606
240.440278,60.360316
240.646389,60.354155
240.948611,60.345299
241.3925,60.332552
242.043889,60.314164
243.0,60.28757
244.403333,60.249017
246.463333,60.193028
249.486944,60.11168
253.924722,59.993666
260.438889,59.823208
262.219444,59.777184
264.0,59.731408
264.01,59.729471
264.02,59.727684
264.03,59.725985
264.044167,59.723713
264.064722,59.720556
264.095,59.716218
264.139167,59.710321
264.204444,59.702408
264.3,59.69193
264.440278,59.678248
264.646389,59.660615
264.948611,59.638142
265.3925,59.609714
266.043889,59.573831
267.0,59.528347
268.403333,59.470083
270.463333,59.394297
273.486944,59.293994
277.924722,59.159053
284.438889,58.975202
286.219444,58.926904
288.0,58.879271
288.01,58.877137
288.02,58.875171
288.03,58.873302
288.044167,58.870804
288.064722,58.867337
288.095,58.862574
288.139167,58.856108
288.204444,58.847441
288.3,58.835984
288.440278,58.821055
288.646389,58.801868
288.948611,58.777499
289.3925,58.746811
290.043889,58.708292
291.0,58.659801
292.403333,58.598196
294.463333,58.518829
297.486944,58.414918
301.924722,58.276764
308.438889,58.090833
310.219444,58.042337
312.0,57.994627
312.01,57.996789
312.02,57.998735
312.03,58.000552
312.044167,58.002942
312.064722,58.006191
312.095,58.010535
312.139167,58.01623
312.204444,58.02352
312.3,58.03258
312.440278,58.043431
312.646389,58.055833
312.948611,58.069138
313.3925,58.082138
314.043889,58.092893
315.0,58.098543
316.403333,58.095067
318.463333,58.076953
321.486944,58.036719
325.924722,57.964256
332.438889,57.845999
334.219444,57.812526
336.0,57.778784
336.01,57.780087
336.02,57.781258
336.03,57.78235
336.044167,57.783784
336.064722,57.785728
336.095,57.788321
336.139167,57.791707
336.204444,57.796019
336.3,57.801336
336.440278,57.807632
336.646389,57.814696
336.948611,57.822037
337.3925,57.828764
338.043889,57.833452
339.0,57.83397
340.403333,57.82724
342.463333,57.808884
345.486944,57.77269
349.924722,57.709872
356.438889,57.608116
358.219444,57.579252
360.0,57.550106
360.01,57.557225
360.02,57.563695
360.03,57.56978
360.044167,57.577839
360.064722,57.588888
360.095,57.603834
360.139167,57.623727
360.204444,57.649714
360.3,57.682929
360.440278,57.724334
360.646389,57.774503
360.948611,57.833391
361.3925,57.900123
362.043889,57.972851
363.0,58.048687
364.403333,58.123665
366.463333,58.192619
369.486944,58.248863
373.924722,58.283577
380.438889,58.284881
382.219444,58.279256
384.0,58.271833
384.01,58.271226
384.02,58.270669
384.03,58.270142
384.044167,58.26944
384.064722,58.268468
384.095,58.267139
384.139167,58.265345
384.204444,58.262957
384.3,58.259828
384.440278,58.255792
384.646389,58.250667
384.948611,58.244243
385.3925,58.236256
386.043889,58.22632
387.0,58.213799
388.403333,58.197592
390.463333,58.175765
393.486944,58.144975
397.924722,58.099628
404.438889,58.030734
406.219444,58.01138
408.0,57.991821
408.01,57.990029
408.02,57.988388
408.03,57.986835
408.044167,57.984767
408.064722,57.981912
408.095,57.978014
408.139167,57.972765
408.204444,57.965801
408.3,57.956716
408.440278,57.945075
408.646389,57.930434
408.948611,57.912341
409.3925,57.890319
410.043889,57.863791
411.0,57.831935
412.403333,57.793454
414.463333,57.746247
417.486944,57.686937
421.924722,57.61022
428.438889,57.507967
430.219444,57.48123
432.0,57.454855
432.01,57.456389
432.02,57.457772
432.03,57.459067
432.044167,57.460774
432.064722,57.463099
432.095,57.466217
432.139167,57.470324
432.204444,57.47561
432.3,57.482233
432.440278,57.49026
432.646389,57.499599
432.948611,57.509911
433.3925,57.520516
434.043889,57.530299
435.0,57.537596
436.403333,57.540065
438.463333,57.534481
441.486944,57.516417
445.924722,57.479753
452.438889,57.415955
462.0,57.31308
476.033889,57.154531
478.016944,57.131821
480.0,57.109074
480.01,57.105971
480.02,57.103134
480.03,57.100455
480.044167,57.096893
480.064722,57.091985
480.095,57.085303
480.139167,57.076332
480.204444,57.064484
480.3,57.049114
480.440278,57.029568
480.646389,57.005229
480.948611,56.975552
481.3925,56.940071
482.043889,56.898328
483.0,56.84972
484.403333,56.793243
486.463333,56.727141
489.486944,56.648472
493.924722,56.552545
500.438889,56.432208
502.219444,56.401825
504.0,56.372217
504.01,56.376348
504.02,56.380096
504.03,56.383617
504.044167,56.388276
504.064722,56.394653
504.095,56.403264
504.139167,56.414698
504.204444,56.429588
504.3,56.448538
504.440278,56.472023
504.646389,56.500249
504.948611,56.533
505.3925,56.569488
506.043889,56.608252
507.0,56.64708
508.403333,56.682967
510.463333,56.712026
513.486944,56.729309
517.924722,56.72847
524.438889,56.701225
526.219444,56.690782
528.0,56.679467
528.01,56.679962
528.02,56.680406
528.03,56.680821
528.044167,56.681367
528.064722,56.682107
528.095,56.683096
528.139167,56.684389
528.204444,56.68604
528.3,56.688082
528.440278,56.690511
528.646389,56.693253
528.948611,56.696126
529.3925,56.698794
530.043889,56.700699
531.0,56.700976
532.403333,56.698308
534.463333,56.690695
537.486944,56.675091
541.924722,56.646853
548.438889,56.598993
550.219444,56.585045
552.0,56.570819
552.01,56.56887
552.02,56.567089
552.03,56.565406
552.044167,56.563167
552.064722,56.560081
552.095,56.555877
552.139167,56.550231
552.204444,56.542767
552.3,56.533075
552.440278,56.520731
552.646389,56.505328
552.948611,56.486495
553.3925,56.463889
554.043889,56.437146
555.0,56.405758
556.403333,56.368882
558.463333,56.325061
561.486944,56.271845
565.924722,56.205285
572.438889,56.119237
574.219444,56.097093
576.0,56.075361
576.01,56.071691
576.02,56.068338
576.03,56.065173
576.044167,56.060964
576.064722,56.055167
576.095,56.047278
576.139167,56.036695
576.204444,56.022725
576.3,56.004623
576.440278,55.981633
576.646389,55.953058
576.948611,55.918308
577.3925,55.876912
578.043889,55.828463
579.0,55.772462
580.403333,55.708073
582.463333,55.633799
585.486944,55.547108
589.924722,55.443993
596.438889,55.318404
598.219444,55.287288
600.0,55.257173
600.01,55.251777
600.02,55.246847
600.03,55.242194
600.044167,55.236009
600.064722,55.22749
600.095,55.2159
600.139167,55.200356
600.204444,55.179847
600.3,55.153285
600.440278,55.119576
600.646389,55.07772
600.948611,55.026889
601.3925,54.96646
602.043889,54.895944
603.0,54.814785
604.403333,54.722055
606.463333,54.616065
609.486944,54.493976
613.924722,54.351387
620.438889,54.181905
622.219444,54.140631
624.0,54.100949
624.01,54.102411
624.02,54.103723
624.03,54.104947
624.044167,54.106553
624.064722,54.10873
624.095,54.111634
624.139167,54.115424
624.204444,54.120248
624.3,54.126195
624.440278,54.133235
624.646389,54.141136
624.948611,54.149364
625.3925,54.156963
626.043889,54.162442
627.0,54.163649
628.403333,54.157637
630.463333,54.14051
633.486944,54.107225
637.924722,54.05137
644.438889,53.96486
646.219444,53.941016
648.0,53.9172
648.01,53.915946
648.02,53.914792
648.03,53.913697
648.044167,53.912234
648.064722,53.910207
648.095,53.907427
648.139167,53.903661
648.204444,53.898628
648.3,53.891999
648.440278,53.8834
648.646389,53.87241
648.948611,53.858548
649.3925,53.841236
650.043889,53.819711
651.0,53.792887
652.403333,53.759144
654.463333,53.716037
657.486944,53.659935
661.924722,53.585574
668.438889,53.485535
670.219444,53.459423
672.0,53.433722
672.01,53.433019
672.02,53.432365
672.03,53.431741
672.044167,53.430903
672.064722,53.429732
672.095,53.428111
672.139167,53.425889
672.204444,53.422876
672.3,53.418833
672.440278,53.413466
672.646389,53.406408
672.948611,53.39719
673.3925,53.385194
674.043889,53.369563
675.0,53.349076
676.403333,53.321957
678.463333,53.285635
681.486944,53.236419
685.924722,53.169095
692.438889,53.076427
702.0,52.948543
716.033889,52.77222
718.016944,52.748145
720.0,52.724251
720.01,52.723571
720.02,52.722941
720.03,52.72234
720.044167,52.721534
720.064722,52.72041
720.095,52.71886
720.139167,52.716741
720.204444,52.713878
720.3,52.710055
720.440278,52.70501
720.646389,52.698422
720.948611,52.689889
721.3925,52.678887
722.043889,52.664692
723.0,52.646263
724.403333,52.622072
726.463333,52.58986
729.486944,52.546322
733.924722,52.486692
740.438889,52.404215
742.219444,52.382374
744.0,52.360773
744.01,52.362894
744.02,52.364815
744.03,52.366617
744.044167,52.368998
744.064722,52.372254
744.095,52.37664
744.139167,52.382451
744.204444,52.389991
744.3,52.399543
744.440278,52.411304
744.646389,52.425306
744.948611,52.441327
745.3925,52.458794
746.043889,52.4767
747.0,52.493532
748.403333,52.507178
750.463333,52.514804
753.486944,52.51262
757.924722,52.495539
764.438889,52.456673
766.219444,52.444467
768.0,52.431806
768.01,52.430426
768.02,52.429163
768.03,52.427969
768.044167,52.42638
768.064722,52.424187
768.095,52.421196
768.139167,52.417174
768.204444,52.411845
768.3,52.404908
768.440278,52.396042
768.646389,52.384927
768.948611,52.371251
769.3925,52.354693
770.043889,52.334877
771.0,52.311257
772.403333,52.28295
774.463333,52.248477
777.486944,52.20542
781.924722,52.149951
788.438889,52.076234
790.219444,52.056992
792.0,52.038024
792.01,52.038852
792.02,52.039597
792.03,52.040293
792.044167,52.041207
792.064722,52.042449
792.095,52.044109
792.139167,52.046284
792.204444,52.049064
792.3,52.052514
792.440278,52.056637
792.646389,52.061332
792.948611,52.066339
793.3925,52.071174
794.043889,52.075064
795.0,52.076864
796.403333,52.074955
798.463333,52.067092
801.486944,52.050176
805.924722,52.01991
812.438889,51.970309
814.219444,51.956187
816.0,51.941913
816.01,51.939964
816.02,51.938183
816.03,51.9365
816.044167,51.934261
816.064722,51.931175
816.095,51.926972
816.139167,51.921326
816.204444,51.913863
816.3,51.904172
816.440278,51.891831
816.646389,51.876434
816.948611,51.857612
817.3925,51.835029
818.043889,51.808331
819.0,51.777038
820.403333,51.740357
822.463333,51.69694
825.486944,51.644553
829.924722,51.579665
836.438889,51.496913
838.219444,51.47582
840.0,51.455197
840.01,51.457323
840.02,51.45925
840.03,51.461058
840.044167,51.463448
840.064722,51.466716
840.095,51.471121
840.139167,51.476959
840.204444,51.484539
840.3,51.49415
840.440278,51.505999
840.646389,51.520132
840.948611,51.53635
841.3925,51.554114
842.043889,51.572476
843.0,51.590011
844.403333,51.604761
846.463333,51.614138
849.486944,51.614755
853.924722,51.602154
860.438889,51.570379
862.219444,51.560182
864.0,51.549551
864.01,51.550424
864.02,51.551214
864.03,51.551955
864.044167,51.552932
864.064722,51.554267
864.095,51.556062
864.139167,51.558436
864.204444,51.561508
864.3,51.565384
864.440278,51.57013
864.646389,51.575732
864.948611,51.582057
865.3925,51.588799
866.043889,51.595428
867.0,51.601129
868.403333,51.604709
870.463333,51.604445
873.486944,51.597844
877.924722,51.581259
884.438889,51.549356
886.219444,51.539683
888.0,51.529715
888.01,51.528724
888.02,51.527817
888.03,51.526959
888.044167,51.525816
888.064722,51.524239
888.095,51.522088
888.139167,51.519192
888.204444,51.515352
888.3,51.510348
888.440278,51.503943
888.646389,51.495899
888.948611,51.485976
889.3925,51.473924
890.043889,51.459439
891.0,51.442084
892.403333,51.421154
894.463333,51.395484
897.486944,51.363169
901.924722,51.321182
908.438889,51.264846
918.0,51.187135
932.033889,51.077809
934.016944,51.062635
936.0,51.047514
936.01,51.046317
936.02,51.045221
936.03,51.044183
936.044167,51.042801
936.064722,51.040892
936.095,51.038286
936.139167,51.034776
936.204444,51.030117
936.3,51.024038
936.440278,51.016245
936.646389,51.006438
936.948611,50.994312
937.3925,50.979546
938.043889,50.961755
939.0,50.940399
940.403333,50.914651
942.463333,50.8832
945.486944,50.844006
949.924722,50.79397
956.438889,50.728495
958.219444,50.711591
960.0,50.694998
960.01,50.695279
960.02,50.695527
960.03,50.695755
960.044167,50.696051
960.064722,50.696444
960.095,50.696957
960.139167,50.697605
960.204444,50.698392
960.3,50.699294
960.440278,50.700244
960.646389,50.701097
960.948611,50.701599
961.3925,50.701338
962.043889,50.699691
963.0,50.695747
964.403333,50.68821
966.463333,50.675271
969.486944,50.654406
973.924722,50.622114
980.438889,50.573529
982.219444,50.560176
984.0,50.54682
984.01,50.547492
984.02,50.548097
984.03,50.548663
984.044167,50.549408
984.064722,50.550422
984.095,50.551779
984.139167,50.553561
984.204444,50.555848
984.3,50.558699
984.440278,50.56213
984.646389,50.566078
984.948611,50.570362
985.3925,50.57463
986.043889,50.578312
987.0,50.580552
988.403333,50.580128
990.463333,50.575324
993.486944,50.563733
997.924722,50.541964
1004.438889,50.50523
1006.219444,50.494637
1008.0,50.483883
1008.01,50.483449
1008.02,50.483048
1008.03,50.482667
1008.044167,50.482156
1008.064722,50.481447
1008.095,50.480471
1008.139167,50.479144
1008.204444,50.47736
1008.3,50.474994
1008.440278,50.471897
1008.646389,50.467893
1008.948611,50.46277
1009.3925,50.456254
1010.043889,50.447969
1011.0,50.437366
1012.403333,50.423611
1014.463333,50.405426
1017.486944,50.380859
1021.924722,50.346963
1028.438889,50.299353
1038.0,50.231624
1052.033889,50.134609
1054.016944,50.121063
1056.0,50.107553
1056.01,50.107858
1056.02,50.10813
1056.03,50.108383
1056.044167,50.108712
1056.064722,50.109156
1056.095,50.109742
1056.139167,50.110498
1056.204444,50.111443
1056.3,50.112576
1056.440278,50.113863
1056.646389,50.11521
1056.948611,50.11643
1057.3925,50.117212
1058.043889,50.117072
1059.0,50.115288
1060.403333,50.110825
1062.463333,50.102201
1065.486944,50.087307
1069.924722,50.063131
1076.438889,50.025361
1078.219444,50.014779
1080.0,50.004126
1080.01,50.004999
1080.02,50.00579
1080.03,50.006531
1080.044167,50.00751
1080.064722,50.008846
1080.095,50.010644
1080.139167,50.013022
1080.204444,50.0161
1080.3,50.019986
1080.440278,50.024747
1080.646389,50.030376
1080.948611,50.036746
1081.3925,50.043569
1082.043889,50.050346
1083.0,50.056325
1084.403333,50.060431
1086.463333,50.061164
1089.486944,50.056431
1093.924722,50.043276
1100.438889,50.017479
1102.219444,50.00964
1104.0,50.001564
1104.01,50.002451
1104.02,50.003256
1104.03,50.004011
1104.044167,50.005009
1104.064722,50.006375
1104.095,50.008215
1104.139167,50.010655
1104.204444,50.013824
1104.3,50.017843
1104.440278,50.022799
1104.646389,50.028713
1104.948611,50.035497
1105.3925,50.042921
1106.043889,50.050566
1107.0,50.057789
1108.403333,50.06366
1110.463333,50.066867
1113.486944,50.065542
1117.924722,50.056985
1124.438889,50.037244
1126.219444,50.030942
1128.0,50.024359
1128.01,50.020773
1128.02,50.017503
1128.03,50.014421
1128.044167,50.010329
1128.064722,50.004703
1128.095,49.997066
1128.139167,49.986851
1128.204444,49.973423
1128.3,49.956112
1128.440278,49.934283
1128.646389,49.907403
1128.948611,49.875128
1129.3925,49.837336
1130.043889,49.794119
1131.0,49.745674
1132.403333,49.692131
1134.463333,49.633301
1137.486944,49.568386
1141.924722,49.495635
1148.438889,49.411904
1150.219444,49.39177
1152.0,49.372465
1152.01,49.376841
1152.02,49.380817
1152.03,49.384557
1152.044167,49.389509
1152.064722,49.396298
1152.095,49.40548
1152.139167,49.4177
1152.204444,49.433661
1152.3,49.454058
1152.440278,49.479479
1152.646389,49.510274
1152.948611,49.546418
1153.3925,49.587384
1154.043889,49.632077
1155.0,49.678822
1156.403333,49.725408
1158.463333,49.769133
1161.486944,49.806798
1165.924722,49.834615
1172.438889,49.847969
1174.219444,49.848416
1176.0,49.847919
1176.01,49.84698
1176.02,49.846124
1176.03,49.845318
1176.044167,49.844248
1176.064722,49.842777
1176.095,49.840781
1176.139167,49.838113
1176.204444,49.834607
1176.3,49.830092
1176.440278,49.824402
1176.646389,49.817402
1176.948611,49.808999
