time,pressure
0.0,149.888054
0.000833,149.888054
0.165556,149.897733
0.165833,149.897733
0.199167,148.397583
0.2325,147.497493
0.265833,146.79097
0.299167,146.278016
0.3325,145.823132
0.365833,145.329534
0.399167,144.923042
0.4325,144.526228
0.465833,144.119735
0.499167,143.761635
0.5325,143.403535
0.565833,142.997042
0.599167,142.667977
0.6325,142.319555
0.665556,141.961455
0.698889,141.700139
0.732222,141.400109
0.765556,141.061365
0.798889,140.761335
0.832222,140.470983
0.865556,140.141918
0.898889,139.870923
0.932222,139.561215
0.965556,139.309577
0.998889,139.038582
1.032222,138.786944
1.065556,138.544984
1.098889,138.303025
1.132222,138.022351
1.165556,137.780392
1.198889,137.538432
1.232222,137.306151
1.265556,137.035156
1.298889,136.802875
1.332222,136.570593
1.365556,136.318955
1.398889,136.096352
1.432222,135.835036
1.465556,135.612433
1.498889,135.38983
1.532222,135.176906
1.565556,134.944624
1.598889,134.7317
1.632222,134.54781
1.665556,134.344564
1.698889,134.141318
1.732222,133.94775
1.765556,133.725148
1.798889,133.541258
1.832222,133.357369
1.865556,133.144444
1.898889,132.960555
1.932222,132.776666
1.965556,132.583098
1.998889,132.408887
2.031944,132.205641
2.065278,132.041108
2.098611,131.876576
2.131944,131.683008
2.165278,131.528154
2.198611,131.363621
2.231944,131.199088
2.265278,131.024878
2.298611,130.879702
2.331944,130.715169
2.365278,130.540958
2.398611,130.386104
2.431944,130.221571
2.465278,130.066717
2.498611,129.921541
2.531944,129.74733
2.565278,129.602155
2.598611,129.456979
2.631944,129.350517
2.665278,129.195662
2.698611,129.060165
2.731944,128.895632
2.765278,128.750457
2.798611,128.624637
2.831944,128.469783
2.865278,128.334286
2.898611,128.208467
2.931944,128.082648
2.965278,127.937472
2.998611,127.801975
3.031944,127.676156
3.065278,127.540658
3.098611,127.424517
3.131944,127.279342
3.165278,127.163201
3.198611,127.037382
3.231944,126.911563
3.265278,126.785744
3.298611,126.669603
3.331944,126.553463
3.365278,126.417965
3.398611,126.301825
3.431667,126.176006
3.465,126.079222
3.498333,125.972759
3.531667,125.866297
3.565,125.759835
3.598333,125.663051
3.631667,125.527554
3.665,125.440448
3.698333,125.343664
3.731667,125.237202
3.765,125.140418
3.798333,125.043634
3.831667,124.937172
3.865,124.840388
3.898333,124.753283
3.931667,124.64682
3.965,124.559715
3.998333,124.472609
4.031667,124.375826
4.065,124.279042
4.098333,124.191936
4.131667,124.104831
4.165,124.008047
4.198333,123.93062
4.231667,123.824157
4.265,123.727374
4.298333,123.640268
4.331667,123.562841
4.365,123.466057
4.398333,123.369273
4.431667,123.291846
4.465,123.195062
4.498333,123.107957
4.531667,123.020851
4.565,122.924067
4.598333,122.836962
4.631667,122.749856
4.665,122.653073
4.698333,122.575645
4.731667,122.478862
4.765,122.391756
4.798333,122.314329
4.831389,122.236902
4.864722,122.140118
4.898056,122.062691
4.931389,121.985264
4.964722,121.878802
4.998056,121.791696
5.031389,121.714269
5.064722,121.627164
5.098056,121.549736
5.131389,121.462631
5.164722,121.385204
5.198056,121.307777
5.231389,121.210993
5.264722,121.133566
5.298056,121.065817
5.331389,120.978712
5.364722,120.901285
5.398056,120.814179
5.431389,120.74643
5.464722,120.659325
5.498056,120.581898
5.531389,120.514149
5.564722,120.417365
5.598056,120.339938
5.631389,120.252833
5.664722,120.185084
5.698056,120.117335
5.731389,120.049586
5.764722,119.962481
5.798056,119.894732
5.831389,119.807627
5.864722,119.739878
5.898056,119.672129
5.931389,119.604381
5.964722,119.517275
5.998056,119.449526
6.031389,119.372099
6.064722,119.304351
6.098056,119.236602
6.131389,119.178532
6.164722,119.101104
6.198056,119.033356
6.231389,118.955929
6.264444,118.88818
6.297778,118.820431
6.331111,118.752683
6.364444,118.684934
6.397778,118.617185
6.431111,118.549436
6.464444,118.481688
6.497778,118.404261
6.531111,118.336512
6.564444,118.278442
6.597778,118.201014
6.631111,118.142944
6.664444,118.075195
6.697778,118.007447
6.731111,117.939698
6.764444,117.871949
6.797778,117.804201
6.831111,117.755809
6.864444,117.678382
6.897778,117.610633
6.931111,117.562241
6.964444,117.494492
6.997778,117.417065
7.031111,117.358995
7.064444,117.291246
7.097778,117.223497
7.131111,117.175105
7.164444,117.097678
7.197778,117.049286
7.231111,116.971859
7.264444,116.904111
7.297778,116.84604
7.331111,116.78797
7.364444,116.720221
7.397778,116.662151
7.431111,116.604081
7.464444,116.526653
7.497778,116.468583
7.531111,116.410513
7.564444,116.342764
7.597778,116.294372
7.631111,116.226623
7.664444,116.158875
7.6975,116.100804
7.730833,116.042734
7.764167,115.974985
7.7975,115.907237
7.830833,115.849166
7.864167,115.791096
7.8975,115.733026
7.930833,115.674955
7.964167,115.607207
7.9975,115.549136
8.030833,115.481388
8.064167,115.423317
8.0975,115.365247
8.130833,115.307177
8.164167,115.22975
8.1975,115.181358
8.230833,115.123287
8.264167,115.065217
8.2975,114.98779
8.330833,114.939398
8.364167,114.881328
8.3975,114.823257
8.430833,114.765187
8.464167,114.697438
8.4975,114.658725
8.530833,114.590976
8.564167,114.542584
8.5975,114.465157
8.630833,114.416765
8.664167,114.349016
8.6975,114.300624
8.730833,114.252233
8.764167,114.194162
8.7975,114.14577
8.830833,114.097378
8.864167,114.039308
8.8975,113.981238
8.930833,113.913489
8.964167,113.874775
8.9975,113.807027
9.030833,113.748956
9.064167,113.690886
9.0975,113.632816
9.130556,113.594102
9.163889,113.526353
9.197222,113.468283
9.230556,113.410213
9.263889,113.352142
9.297222,113.313429
9.330556,113.255359
9.363889,113.197288
9.397222,113.139218
9.430556,113.081148
9.463889,113.013399
9.497222,112.965007
9.530556,112.916615
9.563889,112.848866
9.597222,112.800474
9.630556,112.752082
9.663889,112.694012
9.697222,112.626263
9.730556,112.577872
9.763889,112.519801
9.797222,112.452052
9.830556,112.403661
9.863889,112.355269
9.897222,112.297198
9.930556,112.248806
9.963889,112.190736
9.997222,112.132666
10.030556,112.084274
10.063889,112.006847
10.097222,111.958455
10.130556,111.900384
10.163889,111.842314
10.197222,111.803601
10.230556,111.74553
10.263889,111.677782
10.297222,111.619711
10.330556,111.580998
10.363889,111.503571
10.397222,111.455179
10.430556,111.406787
10.463889,111.348716
10.497222,111.290646
10.530556,111.242254
10.563611,111.184184
10.596944,111.126113
10.630278,111.058365
10.663611,111.009973
10.696944,110.961581
10.730278,110.913189
10.763611,110.855119
10.796944,110.806727
10.830278,110.748656
10.863611,110.690586
10.896944,110.642194
10.930278,110.593802
10.963611,110.535732
10.996944,110.477662
11.030278,110.438948
11.063611,110.380878
11.096944,110.322807
11.130278,110.284094
11.163611,110.226023
11.196944,110.167953
11.230278,110.119561
11.263611,110.061491
11.296944,110.003421
11.330278,109.964707
11.363611,109.906637
11.396944,109.858245
11.430278,109.809853
11.463611,109.761461
11.496944,109.703391
11.530278,109.664677
11.563611,109.606607
11.596944,109.558215
11.630278,109.519501
11.663611,109.471109
11.696944,109.422717
11.730278,109.374325
11.763611,109.325933
11.796944,109.267863
11.830278,109.219471
11.863611,109.171079
11.896944,109.132366
11.930278,109.064617
11.963611,109.025903
11.996944,108.98719
12.03,108.938798
12.063333,108.890406
12.096667,108.851692
12.13,108.803301
12.163333,108.764587
12.196667,108.706517
12.23,108.667803
12.263333,108.619411
12.296667,108.561341
12.33,108.522627
12.363333,108.493592
12.396667,108.435522
12.43,108.396808
12.463333,108.348416
12.496667,108.309703
12.53,108.261311
12.563333,108.212919
12.596667,108.164527
12.63,108.125813
12.663333,108.067743
12.696667,108.02903
12.73,107.990316
12.763333,107.951602
12.796667,107.903211
12.83,107.854819
12.863333,107.816105
12.896667,107.767713
12.93,107.729
12.963333,107.680608
12.996667,107.641894
13.03,107.583824
13.063333,107.54511
13.096667,107.496718
13.13,107.458005
13.163333,107.409613
13.196667,107.370899
13.23,107.332186
13.263333,107.293472
13.296667,107.254759
13.33,107.206367
13.363333,107.167653
13.396667,107.12894
13.43,107.070869
13.463056,107.032156
13.496389,106.983764
13.529722,106.94505
13.563056,106.906337
13.596389,106.877301
13.629722,106.82891
13.663056,106.790196
13.696389,106.751482
13.729722,106.70309
13.763056,106.664377
13.796389,106.606307
13.829722,106.577271
13.863056,106.538558
13.896389,106.499844
13.929722,106.451452
13.963056,106.422417
13.996389,106.374025
14.029722,106.335312
14.063056,106.28692
14.096389,106.257885
14.129722,106.209493
14.163056,106.170779
14.196389,106.122387
14.229722,106.083674
14.263056,106.035282
14.296389,105.996568
14.329722,105.957855
14.363056,105.919141
14.396389,105.880428
14.429722,105.841714
14.463056,105.803
14.496389,105.764287
14.529722,105.735252
14.563056,105.696538
14.596389,105.648146
14.629722,105.609433
14.663056,105.561041
14.696389,105.512649
14.729722,105.483614
14.763056,105.4449
14.796389,105.406187
14.829722,105.377151
14.863056,105.338438
14.896111,105.299724
14.929444,105.261011
14.962778,105.231976
14.996111,105.193262
15.029444,105.154549
15.062778,105.106157
15.096111,105.057765
15.129444,105.02873
15.162778,104.990016
15.196111,104.951302
15.229444,104.90291
15.262778,104.873875
15.296111,104.835162
15.329444,104.796448
15.362778,104.757735
15.396111,104.738378
15.429444,104.699664
15.462778,104.641594
15.496111,104.612559
15.529444,104.573845
15.562778,104.535132
15.596111,104.496418
15.629444,104.457705
15.662778,104.42867
15.696111,104.389956
15.729444,104.351242
15.762778,104.312529
15.796111,104.273815
15.829444,104.235102
15.862778,104.196388
15.896111,104.147996
15.929444,104.118961
15.962778,104.080248
15.996111,104.041534
16.029444,104.00282
16.062778,103.964107
16.096111,103.925393
16.129444,103.88668
16.162778,103.857645
16.196111,103.818931
16.229444,103.780218
16.262778,103.751182
16.295833,103.70279
16.329167,103.673755
16.3625,103.625363
16.395833,103.58665
16.429167,103.547936
16.4625,103.518901
16.495833,103.480188
16.529167,103.441474
16.5625,103.40276
16.595833,103.373725
16.629167,103.34469
16.6625,103.296298
16.695833,103.267263
16.729167,103.228549
16.7625,103.189836
16.795833,103.151122
16.829167,103.122087
16.8625,103.073695
16.895833,103.04466
16.929167,103.015625
16.9625,102.976911
16.995833,102.947876
17.029167,102.918841
17.0625,102.880128
17.095833,102.831736
17.129167,102.8027
17.1625,102.763987
17.195833,102.734952
17.229167,102.696238
17.2625,102.657525
17.295833,102.618811
17.329167,102.589776
17.3625,102.551062
17.395833,102.512349
17.429167,102.483314
17.4625,102.4446
17.495833,102.415565
17.529167,102.38653
17.5625,102.357495
17.595833,102.309103
17.629167,102.280068
17.6625,102.251032
17.695556,102.221997
17.728889,102.173605
17.762222,102.134892
17.795556,102.105857
17.828889,102.067143
17.862222,102.038108
17.895556,102.009073
17.928889,101.980038
17.962222,101.941324
17.995556,101.90261
18.028889,101.873575
18.062222,101.825183
18.095556,101.815505
18.128889,101.776791
18.162222,101.738078
18.195556,101.709043
18.228889,101.680008
18.262222,101.641294
18.295556,101.60258
18.328889,101.573545
18.362222,101.54451
18.395556,101.505797
18.428889,101.476761
18.462222,101.438048
18.495556,101.409013
18.528889,101.379978
18.562222,101.341264
18.595556,101.312229
18.628889,101.273515
18.662222,101.254159
18.695556,101.215445
18.728889,101.176731
18.762222,101.157375
18.795556,101.128339
18.828889,101.099304
18.862222,101.070269
18.895556,101.041234
18.928889,101.00252
18.962222,100.983164
18.995556,100.954129
19.028889,100.915415
19.061944,100.876701
19.095278,100.847666
19.128611,100.818631
19.161944,100.779918
19.195278,100.741204
19.228611,100.721847
19.261944,100.673455
19.295278,100.634742
19.328611,100.615385
19.361944,100.576671
19.395278,100.547636
19.428611,100.508923
19.461944,100.479888
19.495278,100.441174
19.528611,100.412139
19.561944,100.383104
19.595278,100.334712
19.628611,100.305677
19.661944,100.266963
19.695278,100.257285
19.728611,100.257285
19.761944,100.257285
19.795278,100.266963
19.828611,100.257285
19.861944,100.247606
19.895278,100.247606
19.928611,100.237928
19.961944,100.237928
19.995278,100.218571
20.028611,100.189536
20.061944,100.170179
20.095278,100.150822
20.128611,100.141144
20.161944,100.112109
20.195278,100.092752
20.228611,100.073395
20.261944,100.054038
20.295278,100.034682
20.328611,100.025003
20.361944,99.995968
20.395278,99.98629
20.428611,99.966933
20.461667,99.957255
20.495,99.937898
20.528333,99.928219
20.561667,99.908863
20.595,99.899184
20.628333,99.889506
20.661667,99.870149
20.695,99.850792
20.728333,99.841114
20.761667,99.821757
20.795,99.812079
20.828333,99.8024
20.861667,99.783044
20.895,99.773365
20.928333,99.763687
20.961667,99.754008
20.995,99.734652
21.028333,99.734652
21.061667,99.724973
21.095,99.695938
21.128333,99.695938
21.161667,99.68626
21.195,99.68626
21.228333,99.676581
21.261667,99.676581
21.295,99.666903
21.328333,99.657225
21.361667,99.657225
21.395,99.647546
21.428333,99.637868
21.461667,99.637868
21.495,99.628189
21.528333,99.628189
21.561667,99.618511
21.595,99.608833
21.628333,99.599154
21.661667,99.589476
21.695,99.579798
21.728333,99.579798
21.761667,99.570119
21.795,99.570119
21.828056,99.560441
21.861389,99.541084
21.894722,99.531406
21.928056,99.531406
21.961389,99.521727
21.994722,99.521727
22.028056,99.50237
22.061389,99.492692
22.094722,99.492692
22.128056,99.492692
22.161389,99.473335
22.194722,99.473335
22.228056,99.463657
22.261389,99.4443
22.294722,99.434622
22.328056,99.4443
22.361389,99.424943
22.394722,99.395908
22.428056,99.376551
22.461389,99.366873
22.494722,99.347516
22.528056,99.337838
22.561389,99.328159
22.594722,99.308803
22.628056,99.289446
22.661389,99.279768
22.694722,99.270089
22.728056,99.270089
22.761389,99.260411
22.794722,99.250732
22.828056,99.241054
22.861389,99.241054
22.894722,99.212019
22.928056,99.20234
22.961389,99.192662
22.994722,99.182984
23.028056,99.182984
23.061389,99.163627
23.094722,99.163627
23.128056,99.153948
23.161389,99.14427
23.194722,99.124913
23.227778,99.115235
23.261111,99.105557
23.294444,99.095878
23.327778,99.095878
23.361111,99.0862
23.394444,99.066843
23.427778,99.057165
23.461111,99.047486
23.494444,99.037808
23.527778,99.028129
23.561111,99.018451
23.594444,98.999094
23.627778,98.989416
23.661111,98.979738
23.694444,98.970059
23.727778,98.970059
23.761111,98.950702
23.794444,98.941024
23.827778,98.931346
23.861111,98.911989
23.894444,98.892632
23.927778,98.892632
23.961111,98.882954
23.994444,98.873275
24.027778,98.873275
24.061111,98.863597
24.094444,98.853918
24.127778,98.84424
24.161111,98.834562
24.194444,98.815205
24.227778,98.805527
24.261111,98.805527
24.294444,98.78617
24.327778,98.78617
24.361111,98.78617
24.394444,98.766813
24.427778,98.757135
24.461111,98.747456
24.494444,98.737778
24.527778,98.718421
24.561111,98.708743
24.594167,98.689386
24.6275,98.670029
24.660833,98.660351
24.694167,98.660351
24.7275,98.650672
24.760833,98.631316
24.794167,98.621637
24.8275,98.60228
24.860833,98.592602
24.894167,98.563567
24.9275,98.54421
24.960833,98.54421
24.994167,98.534532
25.0275,98.515175
25.060833,98.495818
25.094167,98.48614
25.1275,98.466783
25.160833,98.457105
25.194167,98.447426
25.2275,98.428069
25.260833,98.418391
25.294167,98.389356
25.3275,98.379678
25.360833,98.360321
25.394167,98.350642
25.4275,98.331286
25.460833,98.311929
25.494167,98.30225
25.5275,98.292572
25.560833,98.282894
25.594167,98.273215
25.6275,98.263537
25.660833,98.24418
25.694167,98.224823
25.7275,98.215145
25.760833,98.215145
25.794167,98.18611
25.8275,98.176431
25.860833,98.157075
25.894167,98.137718
25.9275,98.118361
25.960556,98.108683
25.993889,98.099004
26.027222,98.089326
26.060556,98.069969
26.093889,98.050612
26.127222,98.021577
26.160556,98.011899
26.193889,98.00222
26.227222,97.992542
26.260556,97.973185
26.293889,97.963507
26.327222,97.953828
26.360556,97.934472
26.393889,97.924793
26.427222,97.905437
26.460556,97.905437
26.493889,97.895758
26.527222,97.866723
26.560556,97.857045
26.593889,97.847366
26.627222,97.837688
26.660556,97.828009
26.693889,97.808653
26.727222,97.798974
26.760556,97.779618
26.793889,97.769939
26.827222,97.760261
26.860556,97.750582
26.893889,97.721547
26.927222,97.70219
26.960556,97.711869
26.993889,97.70219
27.027222,97.692512
27.060556,97.692512
27.093889,97.663477
27.127222,97.653798
27.160556,97.64412
27.193889,97.624763
27.227222,97.615085
27.260556,97.595728
27.293889,97.595728
27.326944,97.576371
27.360278,97.557015
27.393611,97.547336
27.426944,97.547336
27.460278,97.537658
27.493611,97.518301
27.526944,97.498944
27.560278,97.479588
27.593611,97.460231
27.626944,97.440874
27.660278,97.440874
27.693611,97.421517
27.726944,97.40216
27.760278,97.40216
27.793611,97.382804
27.826944,97.382804
27.860278,97.363447
27.893611,97.34409
27.926944,97.324733
27.960278,97.315055
27.993611,97.305377
28.026944,97.295698
28.060278,97.266663
28.093611,97.237628
28.126944,97.218271
28.160278,97.208593
28.193611,97.189236
28.226944,97.179557
28.260278,97.160201
28.293611,97.150522
28.326944,97.131166
28.360278,97.121487
28.393611,97.121487
28.426944,97.111809
28.460278,97.111809
28.493611,97.10213
28.526944,97.092452
28.560278,97.082774
28.593611,97.073095
28.626944,97.063417
28.660278,97.063417
28.693333,97.053738
28.726667,97.034382
28.76,97.034382
28.793333,97.015025
28.826667,97.005347
28.86,96.995668
28.893333,96.98599
28.926667,96.976311
28.96,96.966633
28.993333,96.947276
29.026667,96.937598
29.06,96.918241
29.093333,96.908563
29.126667,96.889206
29.16,96.879527
29.193333,96.869849
29.226667,96.850492
29.26,96.840814
29.293333,96.831136
29.326667,96.821457
29.36,96.811779
29.393333,96.811779
29.426667,96.782744
29.46,96.773065
29.493333,96.763387
29.526667,96.74403
29.56,96.74403
29.593333,96.724673
29.626667,96.714995
29.66,96.714995
29.693333,96.695638
29.726667,96.695638
29.76,96.68596
29.793333,96.676281
29.826667,96.666603
29.86,96.656925
29.893333,96.647246
29.926667,96.627889
29.96,96.618211
29.993333,96.598854
30.026667,96.589176
30.06,96.569819
30.093056,96.550462
30.126389,96.521427
30.159722,96.511749
30.193056,96.50207
30.226389,96.492392
30.259722,96.473035
30.293056,96.453678
30.326389,96.434322
30.359722,96.424643
30.393056,96.414965
30.426389,96.405287
30.459722,96.38593
30.493056,96.376251
30.526389,96.356895
30.559722,96.337538
30.593056,96.327859
30.626389,96.318181
30.659722,96.308503
30.693056,96.289146
30.726389,96.269789
30.759722,96.240754
30.793056,96.231076
30.826389,96.211719
30.859722,96.20204
30.893056,96.182684
30.926389,96.173005
30.959722,96.153648
30.993056,96.14397
31.026389,96.124613
31.059722,96.134292
31.093056,96.114935
31.126389,96.114935
31.159722,96.095578
31.193056,96.095578
31.226389,96.0859
31.259722,96.076221
31.293056,96.056865
31.326389,96.047186
31.359722,96.027829
31.393056,96.008473
31.426389,96.008473
31.459444,95.989116
31.492778,95.979437
31.526111,95.960081
31.559444,95.960081
31.592778,95.940724
31.626111,95.940724
31.659444,95.931046
31.692778,95.921367
31.726111,95.90201
31.759444,95.882654
31.792778,95.872975
31.826111,95.853618
31.859444,95.84394
31.892778,95.834262
31.926111,95.834262
31.959444,95.824583
31.992778,95.805227
32.026111,95.795548
32.059444,95.776191
32.092778,95.747156
32.126111,95.737478
32.159444,95.727799
32.192778,95.718121
32.226111,95.698764
32.259444,95.679407
32.292778,95.669729
32.326111,95.660051
32.359444,95.650372
32.392778,95.631016
32.426111,95.621337
32.459444,95.60198
32.492778,95.60198
32.526111,95.592302
32.559444,95.582624
32.592778,95.563267
32.626111,95.54391
32.659444,95.534232
32.692778,95.524553
32.726111,95.514875
32.759444,95.495518
32.792778,95.48584
32.826111,95.466483
32.859167,95.456805
32.8925,95.447126
32.925833,95.427769
32.959167,95.437448
32.9925,95.427769
33.025833,95.418091
33.059167,95.408413
33.0925,95.389056
33.125833,95.379377
33.159167,95.360021
33.1925,95.350342
33.225833,95.340664
33.259167,95.321307
33.2925,95.30195
33.325833,95.282594
33.359167,95.263237
33.3925,95.24388
33.425833,95.234202
33.459167,95.214845
33.4925,95.205167
