time,pressure
0.0,87.755917
0.033333,87.349424
0.066667,87.088108
0.1,86.933254
0.133333,86.865505
0.166667,86.759043
0.2,86.662259
0.233333,86.565475
0.266667,86.429978
0.3,86.333194
0.333333,86.226731
0.366667,86.129948
0.4,86.033164
0.433333,85.926701
0.466667,85.791204
0.5,85.675063
0.533333,85.587958
0.566667,85.462139
0.6,85.365355
0.633333,85.297606
0.666667,85.200822
0.7,85.113717
0.733333,84.997576
0.766667,84.939506
0.8,84.842722
0.833333,84.765295
0.866667,84.697546
0.899722,84.620119
0.933056,84.55237
0.966389,84.4943
0.999722,84.387838
1.033056,84.310411
1.066389,84.25234
1.099722,84.19427
1.133056,84.097486
1.166389,84.049094
1.199722,83.991024
1.233056,83.913597
1.266389,83.855527
1.299722,83.758743
1.333056,83.720029
1.366389,83.632924
1.399722,83.59421
1.433056,83.53614
1.466389,83.487748
1.499722,83.390964
1.533056,83.35225
1.566389,83.303858
1.599722,83.226431
1.633056,83.178039
1.666389,83.119969
1.699722,83.061899
1.733056,82.99415
1.766389,82.955437
1.799722,82.887688
1.833056,82.839296
1.866111,82.790904
1.899444,82.75219
1.932778,82.742512
1.966111,82.69412
1.999444,82.69412
2.032778,82.645728
2.066111,82.616693
2.099444,82.607015
2.132778,82.568301
2.166111,82.529588
2.199444,82.529588
2.232778,82.461839
2.266111,82.45216
2.299444,82.345698
2.332778,82.355377
2.366111,82.297306
2.399444,82.239236
2.432778,82.210201
2.466111,82.171487
2.499444,82.123095
2.532778,82.09406
2.566111,82.055347
2.599444,82.026311
2.632778,81.977919
2.666111,81.958563
2.699444,81.910171
2.732778,81.861779
2.766111,81.813387
2.799444,81.813387
2.8325,81.755317
2.865833,81.706925
2.899167,81.677889
2.9325,81.677889
2.965833,81.619819
2.999167,81.561749
3.0325,81.523035
3.065833,81.494
3.099167,81.494
3.1325,81.445608
3.165833,81.416573
3.199167,81.377859
3.2325,81.339146
3.265833,81.319789
3.299167,81.281076
3.3325,81.261719
3.365833,81.213327
3.399167,81.19397
3.4325,81.145578
3.465833,81.1359
3.499167,81.097186
3.5325,81.068151
3.565833,81.010081
3.599167,81.000402
3.6325,80.942332
3.665833,80.942332
3.699167,80.874583
3.7325,80.874583
3.765833,80.845548
3.798889,80.787478
3.832222,80.777799
3.865556,80.768121
3.898889,80.739086
3.932222,80.719729
3.965556,80.700372
3.998889,80.690694
4.032222,80.632624
4.065556,80.603588
4.098889,80.584232
4.132222,80.564875
4.165556,80.516483
4.198889,80.516483
4.232222,80.506805
4.265556,80.477769
4.298889,80.429377
4.332222,80.390664
4.365556,80.380986
4.398889,80.361629
4.432222,80.313237
4.465556,80.322915
4.498889,80.274523
4.532222,80.226131
4.565556,80.216453
4.598889,80.177739
4.632222,80.168061
4.665556,80.129347
4.698889,80.129347
4.732222,80.090634
4.765278,80.080956
4.798611,80.061599
4.831944,80.042242
4.865278,80.013207
4.898611,79.974493
4.931944,79.93578
4.965278,79.984172
4.998611,79.897066
5.031944,79.897066
5.065278,79.887388
5.098611,79.819639
5.131944,79.829317
5.165278,79.809961
5.198611,79.790604
5.231944,79.771247
5.265278,79.75189
5.298611,79.713177
5.331944,79.69382
5.365278,79.69382
5.398611,79.645428
5.431944,79.626071
5.465278,79.606715
5.498611,79.587358
5.531944,79.568001
5.565278,79.587358
5.598611,79.558323
5.631944,79.500252
5.665278,79.500252
5.698611,79.500252
5.731944,79.480896
5.765,79.500252
5.798333,79.45186
5.831667,79.422825
5.865,79.422825
5.898333,79.403468
5.931667,79.39379
5.965,79.355077
5.998333,79.384112
6.031667,79.345398
6.065,79.316363
6.098333,79.306685
6.131667,79.297006
6.165,79.267971
6.198333,79.238936
6.231667,79.258293
6.265,79.219579
6.298333,79.229257
6.331667,79.209901
6.365,79.180866
6.398333,79.171187
6.431667,79.142152
6.465,79.122795
6.498333,79.103438
6.531667,79.09376
6.565,79.103438
6.598333,79.074403
6.631667,79.045368
6.665,79.045368
6.698333,79.016333
6.731389,78.996976
6.764722,78.977619
6.798056,78.977619
6.831389,78.929227
6.864722,78.909871
6.898056,78.900192
6.931389,78.871157
6.964722,78.861479
6.998056,78.842122
7.031389,78.842122
7.064722,78.813087
7.098056,78.784052
7.131389,78.764695
7.164722,78.774373
7.198056,78.764695
7.231389,78.774373
7.264722,78.745338
7.298056,78.696946
7.331389,78.696946
7.364722,78.687268
7.398056,78.638876
7.431389,78.590484
7.464722,78.580806
7.498056,78.55177
7.531389,78.503378
7.564722,78.513057
7.598056,78.503378
7.631389,78.4937
7.664722,78.522735
7.697778,78.513057
7.731111,78.542092
7.764444,78.532414
7.797778,78.561449
7.831111,78.571127
7.864444,78.55177
7.897778,78.503378
7.931111,78.503378
7.964444,78.4937
7.997778,78.474343
8.031111,78.474343
8.064444,78.445308
8.097778,78.416273
8.131111,78.425951
8.164444,78.396916
8.197778,78.367881
8.231111,78.377559
8.264444,78.367881
8.297778,78.348524
8.331111,78.319489
8.364444,78.309811
8.397778,78.319489
8.431111,78.290454
8.464444,78.261419
8.497778,78.280776
8.531111,78.271097
8.564444,78.25174
8.597778,78.222705
8.631111,78.222705
8.664167,78.213027
8.6975,78.203348
8.730833,78.174313
8.764167,78.174313
8.7975,78.154956
8.830833,78.154956
8.864167,78.116243
8.8975,78.116243
8.930833,78.106565
8.964167,78.096886
8.9975,78.058173
9.030833,78.077529
9.064167,78.048494
9.0975,78.038816
9.130833,78.048494
9.164167,78.058173
9.1975,78.009781
9.230833,78.019459
9.264167,78.009781
9.2975,78.009781
9.330833,78.019459
9.364167,77.990424
9.3975,77.990424
9.430833,77.990424
9.464167,77.990424
9.4975,78.000102
9.530833,77.980746
9.564167,77.971067
9.5975,77.95171
9.630833,77.903318
9.663889,77.89364
9.697222,77.864605
9.730556,77.816213
9.763889,77.845248
9.797222,77.883962
9.830556,77.874283
9.863889,77.854926
9.897222,77.854926
9.930556,77.854926
9.963889,77.874283
9.997222,77.854926
10.030556,77.874283
10.063889,77.825891
10.097222,77.825891
10.130556,77.806535
10.163889,77.767821
10.197222,77.748464
10.230556,77.709751
10.263889,77.700072
10.297222,77.700072
10.330556,77.690394
10.363889,77.729107
10.397222,77.709751
10.430556,77.738786
10.463889,77.738786
10.497222,77.738786
10.530556,77.748464
10.563889,77.748464
10.597222,77.748464
10.630278,77.738786
10.663611,77.719429
10.696944,77.700072
10.730278,77.661359
10.763611,77.642002
10.796944,77.642002
10.830278,77.622645
10.863611,77.603288
10.896944,77.603288
10.930278,77.59361
10.963611,77.603288
10.996944,77.564575
11.030278,77.59361
11.063611,77.583932
11.096944,77.583932
11.130278,77.554896
11.163611,77.574253
11.196944,77.554896
11.230278,77.545218
11.263611,77.53554
11.296944,77.545218
11.330278,77.545218
11.363611,77.487148
11.396944,77.506505
11.430278,77.516183
11.463611,77.448434
11.496944,77.554896
11.530278,77.642002
11.563611,77.700072
11.596944,77.65168
11.63,77.506505
11.663333,77.477469
11.696667,77.496826
11.73,77.516183
11.763333,77.506505
11.796667,77.487148
11.83,77.400042
11.863333,77.419399
11.896667,77.419399
11.93,77.400042
11.963333,77.35165
11.996667,77.322615
12.03,77.29358
12.063333,77.312937
12.096667,77.29358
12.13,77.254866
12.163333,77.245188
12.196667,77.196796
12.23,77.216153
12.263333,77.187118
12.296667,77.187118
12.33,77.206475
12.363333,77.187118
12.396667,77.187118
12.43,77.167761
12.463333,77.119369
12.496667,77.090334
12.53,77.109691
12.563333,77.100012
12.596389,77.05162
12.629722,76.99355
12.663056,77.012907
12.696389,77.012907
12.729722,77.032264
12.763056,77.012907
12.796389,76.99355
12.829722,76.93548
12.863056,77.012907
12.896389,76.974193
12.929722,76.954836
12.963056,76.945158
12.996389,76.925801
13.029722,76.896766
13.063056,76.887088
13.096389,76.877409
13.129722,76.829017
13.163056,76.819339
13.196389,76.819339
13.229722,76.809661
13.263056,76.819339
13.296389,76.829017
13.329722,76.799982
13.363056,76.809661
13.396389,76.790304
13.429722,76.770947
13.463056,76.761269
13.496389,76.75159
13.529722,76.722555
13.562778,76.761269
13.596111,76.732234
13.629444,76.703198
13.662778,76.69352
13.696111,76.674163
13.729444,76.654806
13.762778,76.645128
13.796111,76.616093
13.829444,76.625771
13.862778,76.616093
13.896111,76.606415
13.929444,76.616093
13.962778,76.587058
13.996111,76.596736
14.029444,76.587058
14.062778,76.587058
14.096111,76.567701
14.129444,76.558023
14.162778,76.558023
14.196111,76.548344
14.229444,76.528987
14.262778,76.519309
14.296111,76.499952
14.329444,76.480596
14.362778,76.499952
14.396111,76.490274
14.429444,76.45156
14.462778,76.432204
14.496111,76.441882
14.529444,76.422525
14.5625,76.432204
14.595833,76.403168
14.629167,76.403168
14.6625,76.383812
14.695833,76.383812
14.729167,76.383812
14.7625,76.39349
14.795833,76.403168
14.829167,76.383812
14.8625,76.39349
14.895833,76.364455
14.929167,76.345098
14.9625,76.306385
14.995833,76.248314
15.029167,76.267671
15.0625,76.257993
15.095833,76.238636
15.129167,76.257993
15.1625,76.248314
15.195833,76.199922
15.229167,76.199922
15.2625,76.316063
15.295833,76.470917
15.329167,76.606415
15.3625,76.664485
15.395833,76.567701
15.429167,76.422525
15.4625,76.412847
15.495833,76.296706
15.528889,76.238636
15.562222,76.122495
15.595556,76.054746
15.628889,76.006355
15.662222,76.006355
15.695556,76.006355
15.728889,76.006355
15.762222,76.006355
15.795556,76.03539
15.828889,76.054746
15.862222,76.03539
15.895556,76.074103
15.928889,76.083782
15.962222,76.083782
15.995556,76.083782
16.028889,76.074103
16.062222,76.103138
16.095556,76.122495
16.128889,76.15153
16.162222,76.15153
16.195556,76.09346
16.228889,76.122495
16.262222,76.122495
16.295556,76.141852
16.328889,76.132174
16.362222,76.083782
16.395556,76.09346
16.428889,76.074103
16.462222,76.074103
16.495556,76.064425
16.528611,76.054746
16.561944,76.03539
16.595278,76.064425
16.628611,76.064425
16.661944,76.006355
16.695278,75.977319
16.728611,75.977319
16.761944,75.996676
16.795278,76.016033
16.828611,75.996676
16.861944,76.025711
16.895278,76.045068
16.928611,76.006355
16.961944,76.006355
16.995278,75.948284
17.028611,75.919249
17.061944,75.938606
17.095278,75.938606
17.128611,75.928927
17.161944,75.938606
17.195278,75.938606
17.228611,75.938606
17.261944,75.919249
17.295278,75.909571
17.328611,75.928927
17.361944,75.919249
17.395278,75.928927
17.428611,75.928927
17.461944,75.919249
17.495,75.909571
17.528333,75.919249
17.561667,75.919249
17.595,75.909571
17.628333,75.890214
17.661667,75.899892
17.695,75.899892
17.728333,75.899892
17.761667,75.899892
17.795,75.919249
17.828333,75.909571
17.861667,75.899892
17.895,75.880535
17.928333,75.870857
17.961667,75.8515
17.995,75.8515
18.028333,75.8515
18.061667,75.861179
18.095,75.880535
18.128333,75.880535
18.161667,75.861179
18.195,75.861179
18.228333,75.841822
18.261667,75.861179
18.295,75.841822
18.328333,75.812787
18.361667,75.832144
18.395,75.822465
18.428333,75.79343
18.461667,75.79343
18.494722,75.79343
18.528056,75.79343
18.561389,75.79343
18.594722,75.764395
18.628056,75.774073
18.661389,75.79343
18.694722,75.774073
18.728056,75.764395
18.761389,75.774073
18.794722,75.774073
18.828056,75.764395
18.861389,75.774073
18.894722,75.783752
18.928056,75.764395
18.961389,75.745038
18.994722,75.745038
19.028056,75.745038
19.061389,75.725681
19.094722,75.73536
19.128056,75.73536
19.161389,75.764395
19.194722,75.73536
19.228056,75.725681
19.261389,75.754716
19.294722,75.725681
19.328056,75.73536
19.361389,75.73536
19.394722,75.696646
19.428056,75.686968
19.461389,75.686968
19.494444,75.686968
19.527778,75.667611
19.561111,75.677289
19.594444,75.638576
19.627778,75.657933
19.661111,75.638576
19.694444,75.628897
19.727778,75.590184
19.761111,75.628897
19.794444,75.638576
19.827778,75.628897
19.861111,75.619219
19.894444,75.609541
19.927778,75.609541
19.961111,75.619219
19.994444,75.609541
20.027778,75.590184
20.061111,75.580505
20.094444,75.561149
20.127778,75.561149
20.161111,75.561149
20.194444,75.55147
20.227778,75.561149
20.261111,75.561149
20.294444,75.512757
20.327778,75.503078
20.361111,75.503078
20.394444,75.503078
20.427778,75.483722
20.460833,75.474043
20.494167,75.464365
20.5275,75.474043
20.560833,75.464365
20.594167,75.483722
20.6275,75.474043
20.660833,75.43533
20.694167,75.474043
20.7275,75.445008
20.760833,75.425651
20.794167,75.406295
20.8275,75.406295
20.860833,75.415973
20.894167,75.396616
20.9275,75.377259
20.960833,75.425651
20.994167,75.386938
21.0275,75.386938
21.060833,75.377259
21.094167,75.386938
21.1275,75.396616
21.160833,75.367581
21.194167,75.377259
21.2275,75.377259
21.260833,75.357903
21.294167,75.357903
21.3275,75.328867
21.360833,75.338546
21.394167,75.328867
21.4275,75.338546
21.460556,75.348224
21.493889,75.357903
21.527222,75.357903
21.560556,75.377259
21.593889,75.348224
21.627222,75.328867
21.660556,75.309511
21.693889,75.328867
21.727222,75.319189
21.760556,75.338546
21.793889,75.319189
21.827222,75.357903
21.860556,75.328867
21.893889,75.348224
21.927222,75.367581
21.960556,75.357903
21.993889,75.338546
22.027222,75.290154
22.060556,75.309511
22.093889,75.280475
22.127222,75.232084
22.160556,75.241762
22.193889,75.212727
22.227222,75.19337
22.260556,75.183692
22.293889,75.19337
22.327222,75.203048
22.360556,75.183692
22.393889,75.154656
22.426944,75.115943
22.460278,75.1353
22.493611,75.144978
22.526944,75.154656
22.560278,75.154656
22.593611,75.164335
22.626944,75.174013
22.660278,75.1353
22.693611,75.154656
22.726944,75.164335
22.760278,75.19337
22.793611,75.1353
22.826944,75.1353
22.860278,75.1353
22.893611,75.115943
22.926944,75.086908
22.960278,75.086908
22.993611,75.057873
23.026944,75.096586
23.060278,75.086908
23.093611,75.077229
23.126944,75.057873
23.160278,75.086908
23.193611,75.057873
23.226944,75.048194
23.260278,75.009481
23.293611,75.028837
23.326944,75.019159
23.360278,75.009481
23.393611,74.980445
23.426667,75.009481
23.46,74.990124
23.493333,74.999802
23.526667,74.990124
23.56,74.980445
23.593333,75.009481
23.626667,74.980445
23.66,74.990124
23.693333,74.970767
23.726667,74.970767
23.76,74.941732
23.793333,74.941732
23.826667,74.95141
23.86,74.941732
23.893333,74.932054
23.926667,74.941732
23.96,74.95141
23.993333,74.990124
24.026667,74.980445
24.06,74.941732
24.093333,74.980445
24.126667,74.970767
24.16,74.941732
24.193333,74.903018
24.226667,74.864305
24.26,74.873983
24.293333,74.873983
24.326667,74.883662
24.36,74.903018
24.393056,74.903018
24.426389,74.883662
24.459722,74.883662
24.493056,74.864305
24.526389,74.864305
24.559722,74.864305
24.593056,74.864305
24.626389,74.844948
24.659722,74.844948
24.693056,74.83527
24.726389,74.83527
24.759722,74.854626
24.793056,74.83527
24.826389,74.796556
24.859722,74.815913
24.893056,74.777199
24.926389,74.777199
24.959722,74.767521
24.993056,74.748164
25.026389,74.767521
25.059722,74.738486
25.093056,74.738486
25.126389,74.738486
25.159722,74.738486
25.193056,74.719129
25.226389,74.709451
25.259722,74.709451
25.293056,74.728807
25.326389,74.709451
25.359722,74.738486
25.392778,74.709451
25.426111,74.748164
25.459444,74.728807
25.492778,74.699772
25.526111,74.680415
25.559444,74.65138
25.592778,74.661059
25.626111,74.622345
25.659444,74.622345
25.692778,74.65138
25.726111,74.65138
25.759444,74.622345
25.792778,74.641702
25.826111,74.622345
25.859444,74.622345
25.892778,74.622345
25.926111,74.65138
25.959444,74.622345
25.992778,74.661059
26.026111,74.622345
26.059444,74.622345
26.092778,74.632024
26.126111,74.602988
26.159444,74.622345
26.192778,74.632024
26.226111,74.622345
26.259444,74.641702
26.292778,74.632024
26.326111,74.622345
26.359167,74.612667
26.3925,74.612667
26.425833,74.632024
26.459167,74.59331
26.4925,74.612667
26.525833,74.59331
26.559167,74.612667
26.5925,74.622345
26.625833,74.583632
26.659167,74.573953
26.6925,74.641702
26.725833,74.767521
26.759167,74.854626
26.7925,74.864305
26.825833,74.815913
26.859167,74.748164
26.8925,74.690094
26.925833,74.641702
26.959167,74.738486
26.9925,74.970767
27.025833,75.174013
27.059167,75.299832
27.0925,75.019159
27.125833,74.699772
27.159167,74.467491
27.1925,74.390064
27.225833,74.361029
27.259167,74.312637
27.2925,74.264245
27.325833,74.254566
27.358889,74.283602
27.392222,74.312637
27.425556,74.467491
27.458889,74.419099
27.492222,74.380385
27.525556,74.380385
27.558889,74.370707
27.592222,74.380385
27.625556,74.370707
27.658889,74.361029
27.692222,74.35135
27.725556,74.331994
27.758889,74.312637
27.792222,74.331994
27.825556,74.331994
27.858889,74.35135
27.892222,74.361029
27.925556,74.380385
27.958889,74.35135
27.992222,74.312637
28.025556,74.322315
28.058889,74.312637
28.092222,74.380385
28.125556,74.370707
28.158889,74.35135
28.192222,74.380385
28.225556,74.370707
28.258889,74.361029
28.292222,74.322315
28.325278,74.29328
28.358611,74.302958
28.391944,74.35135
28.425278,74.370707
28.458611,74.361029
28.491944,74.331994
28.525278,74.283602
28.558611,74.283602
28.591944,74.215853
28.625278,74.244888
28.658611,74.23521
28.691944,74.254566
28.725278,74.322315
28.758611,74.312637
28.791944,74.312637
28.825278,74.264245
28.858611,74.244888
28.891944,74.254566
28.925278,74.273923
28.958611,74.264245
28.991944,74.264245
29.025278,74.244888
29.058611,74.254566
29.091944,74.264245
29.125278,74.244888
29.158611,74.177139
29.191944,74.157783
29.225278,74.119069
29.258611,74.148104
29.291944,74.157783
29.325,74.157783
29.358333,74.138426
29.391667,74.157783
29.425,74.119069
29.458333,74.138426
29.491667,74.157783
29.525,74.148104
29.558333,74.128747
29.591667,74.138426
29.625,74.148104
29.658333,74.128747
29.691667,74.099712
29.725,74.109391
29.758333,74.128747
29.791667,74.109391
29.825,74.080355
29.858333,74.041642
29.891667,74.05132
29.925,74.012607
29.958333,74.05132
29.991667,74.041642
30.025,74.05132
30.058333,74.031964
30.091667,74.041642
30.125,74.041642
30.158333,74.060999
30.191667,74.090034
30.225,74.041642
30.258333,74.090034
30.291667,74.090034
30.324722,74.099712
30.358056,74.070677
30.391389,74.060999
30.424722,74.05132
30.458056,74.060999
30.491389,74.031964
30.524722,74.012607
30.558056,73.973893
30.591389,73.99325
30.624722,73.983572
30.658056,73.99325
30.691389,73.964215
30.724722,73.896466
30.758056,73.964215
30.791389,73.944858
30.824722,73.964215
30.858056,73.973893
30.891389,73.93518
30.924722,73.886788
30.958056,73.886788
30.991389,73.886788
31.024722,73.906145
31.058056,73.915823
31.091389,73.964215
31.124722,73.944858
31.158056,73.944858
31.191389,73.944858
31.224722,73.944858
31.258056,73.915823
31.291111,73.896466
31.324444,73.896466
31.357778,73.925501
31.391111,73.944858
31.424444,74.002928
31.457778,73.973893
31.491111,73.915823
31.524444,73.848074
31.557778,73.848074
31.591111,73.828717
31.624444,73.838396
31.657778,73.828717
31.691111,73.819039
31.724444,73.848074
31.757778,73.838396
31.791111,73.828717
31.824444,73.809361
31.857778,73.799682
31.891111,73.790004
31.924444,73.809361
31.957778,73.838396
31.991111,73.838396
32.024444,73.828717
32.057778,73.799682
32.091111,73.760969
32.124444,73.780325
32.157778,73.790004
32.191111,73.780325
32.224444,73.790004
32.257778,73.760969
32.290833,73.770647
32.324167,73.770647
32.3575,73.809361
32.390833,73.780325
32.424167,73.75129
32.4575,73.770647
32.490833,73.760969
32.524167,73.760969
32.5575,73.770647
32.590833,73.770647
32.624167,73.780325
32.6575,73.780325
32.690833,73.780325
32.724167,73.760969
32.7575,73.702898
32.790833,73.712577
32.824167,73.702898
32.8575,73.702898
32.890833,73.69322
32.924167,73.673863
32.9575,73.683542
32.990833,73.63515
33.024167,73.664185
33.0575,73.644828
33.090833,73.664185
33.124167,73.644828
33.1575,73.654506
33.190833,73.644828
33.224167,73.644828
33.257222,73.741612
33.290556,73.741612
33.323889,73.741612
33.357222,73.673863
33.390556,73.702898
33.423889,73.702898
33.457222,73.702898
33.490556,73.69322
33.523889,73.654506
33.557222,73.596436
33.590556,73.596436
33.623889,73.606115
33.657222,73.625471
33.690556,73.63515
33.723889,73.625471
33.757222,73.615793
33.790556,73.625471
33.823889,73.673863
33.857222,73.673863
33.890556,73.69322
33.923889,73.625471
33.957222,73.586758
33.990556,73.606115
34.023889,73.625471
34.057222,73.644828
34.090556,73.615793
34.123889,73.625471
34.157222,73.615793
34.190556,73.625471
34.223889,73.586758
34.256944,73.596436
34.290278,73.557723
34.323611,73.519009
34.356944,73.538366
34.390278,73.499652
34.423611,73.519009
34.456944,73.548044
34.490278,73.548044
34.523611,73.567401
